 electric dipole polarizability:    384.26933324500436     
 m1, energy weight E*R sum:         69381.922242387809     
 m0, R(E) sum:                      2426.7648038431062     
 centroid m1/m0:                    28.590295249260361     
               E                R(E)           photodisintegration cross section
          0.00000000          1.49234676          0.00000000
          0.10000000          1.50299890          0.06045762
          0.20000000          1.51376579          0.12178143
          0.30000000          1.52464909          0.18398547
          0.40000000          1.53565048          0.24708407
          0.50000000          1.54677169          0.31109182
          0.60000000          1.55801445          0.37602361
          0.70000000          1.56938057          0.44189459
          0.80000000          1.58087184          0.50872025
          0.90000000          1.59249012          0.57651636
          1.00000000          1.60423729          0.64529899
          1.10000000          1.61611527          0.71508455
          1.20000000          1.62812601          0.78588977
          1.30000000          1.64027150          0.85773171
          1.40000000          1.65255377          0.93062778
          1.50000000          1.66497488          1.00459571
          1.60000000          1.67753694          1.07965363
          1.70000000          1.69024210          1.15582002
          1.80000000          1.70309253          1.23311371
          1.90000000          1.71609047          1.31155394
          2.00000000          1.72923820          1.39116035
          2.10000000          1.74253801          1.47195296
          2.20000000          1.75599229          1.55395222
          2.30000000          1.76960342          1.63717898
          2.40000000          1.78337386          1.72165455
          2.50000000          1.79730612          1.80740067
          2.60000000          1.81140275          1.89443953
          2.70000000          1.82566634          1.98279379
          2.80000000          1.84009955          2.07248658
          2.90000000          1.85470509          2.16354154
          3.00000000          1.86948572          2.25598279
          3.10000000          1.88444424          2.34983496
          3.20000000          1.89958354          2.44512323
          3.30000000          1.91490655          2.54187330
          3.40000000          1.93041625          2.64011143
          3.50000000          1.94611570          2.73986444
          3.60000000          1.96200801          2.84115975
          3.70000000          1.97809637          2.94402535
          3.80000000          1.99438401          3.04848987
          3.90000000          2.01087426          3.15458255
          4.00000000          2.02757048          3.26233328
          4.10000000          2.04447614          3.37177262
          4.20000000          2.06159476          3.48293178
          4.30000000          2.07892994          3.59584269
          4.40000000          2.09648535          3.71053801
          4.50000000          2.11426476          3.82705109
          4.60000000          2.13227199          3.94541607
          4.70000000          2.15051097          4.06566785
          4.80000000          2.16898569          4.18784212
          4.90000000          2.18770026          4.31197539
          5.00000000          2.20665884          4.43810501
          5.10000000          2.22586570          4.56626919
          5.20000000          2.24532522          4.69650701
          5.30000000          2.26504186          4.82885848
          5.40000000          2.28502017          4.96336454
          5.50000000          2.30526481          5.10006706
          5.60000000          2.32578056          5.23900893
          5.70000000          2.34657228          5.38023405
          5.80000000          2.36764497          5.52378733
          5.90000000          2.38900371          5.66971478
          6.00000000          2.41065372          5.81806350
          6.10000000          2.43260034          5.96888174
          6.20000000          2.45484902          6.12221888
          6.30000000          2.47740534          6.27812552
          6.40000000          2.50027501          6.43665350
          6.50000000          2.52346389          6.59785591
          6.60000000          2.54697795          6.76178715
          6.70000000          2.57082331          6.92850297
          6.80000000          2.59500625          7.09806050
          6.90000000          2.61953318          7.27051828
          7.00000000          2.64441068          7.44593633
          7.10000000          2.66964547          7.62437617
          7.20000000          2.69524445          7.80590088
          7.30000000          2.72121467          7.99057513
          7.40000000          2.74756337          8.17846526
          7.50000000          2.77429796          8.36963929
          7.60000000          2.80142602          8.56416698
          7.70000000          2.82895534          8.76211992
          7.80000000          2.85689389          8.96357154
          7.90000000          2.88524984          9.16859720
          8.00000000          2.91403158          9.37727422
          8.10000000          2.94324768          9.58968197
          8.20000000          2.97290696          9.80590193
          8.30000000          3.00301844         10.02601771
          8.40000000          3.03359140         10.25011520
          8.50000000          3.06463534         10.47828258
          8.60000000          3.09615999         10.71061040
          8.70000000          3.12817538         10.94719168
          8.80000000          3.16069176         11.18812197
          8.90000000          3.19371967         11.43349946
          9.00000000          3.22726992         11.68342501
          9.10000000          3.26135362         11.93800231
          9.20000000          3.29598216         12.19733791
          9.30000000          3.33116725         12.46154135
          9.40000000          3.36692092         12.73072526
          9.50000000          3.40325551         13.00500543
          9.60000000          3.44018372         13.28450097
          9.70000000          3.47771857         13.56933437
          9.80000000          3.51587347         13.85963166
          9.90000000          3.55466218         14.15552249
         10.00000000          3.59409887         14.45714029
         10.10000000          3.63419807         14.76462237
         10.20000000          3.67497477         15.07811008
         10.30000000          3.71644435         15.39774895
         10.40000000          3.75862263         15.72368880
         10.50000000          3.80152592         16.05608397
         10.60000000          3.84517095         16.39509337
         10.70000000          3.88957499         16.74088075
         10.80000000          3.93475578         17.09361483
         10.90000000          3.98073160         17.45346944
         11.00000000          4.02752125         17.82062379
         11.10000000          4.07514413         18.19526261
         11.20000000          4.12362018         18.57757634
         11.30000000          4.17296996         18.96776141
         11.40000000          4.22321467         19.36602040
         11.50000000          4.27437613         19.77256228
         11.60000000          4.32647684         20.18760269
         11.70000000          4.37954001         20.61136415
         11.80000000          4.43358956         21.04407634
         11.90000000          4.48865014         21.48597639
         12.00000000          4.54474723         21.93730913
         12.10000000          4.60190706         22.39832744
         12.20000000          4.66015673         22.86929252
         12.30000000          4.71952421         23.35047424
         12.40000000          4.78003836         23.84215147
         12.50000000          4.84172899         24.34461248
         12.60000000          4.90462689         24.85815526
         12.70000000          4.96876386         25.38308795
         12.80000000          5.03417276         25.91972925
         12.90000000          5.10088753         26.46840883
         13.00000000          5.16894328         27.02946780
         13.10000000          5.23837629         27.60325922
         13.20000000          5.30922410         28.19014851
         13.30000000          5.38152550         28.79051406
         13.40000000          5.45532067         29.40474774
         13.50000000          5.53065115         30.03325546
         13.60000000          5.60755996         30.67645780
         13.70000000          5.68609164         31.33479065
         13.80000000          5.76629229         32.00870584
         13.90000000          5.84820971         32.69867188
         14.00000000          5.93189337         33.40517467
         14.10000000          6.01739457         34.12871828
         14.20000000          6.10476650         34.86982577
         14.30000000          6.19406428         35.62904005
         14.40000000          6.28534511         36.40692476
         14.50000000          6.37866831         37.20406525
         14.60000000          6.47409545         38.02106957
         14.70000000          6.57169045         38.85856951
         14.80000000          6.67151966         39.71722173
         14.90000000          6.77365201         40.59770893
         15.00000000          6.87815910         41.50074109
         15.10000000          6.98511534         42.42705676
         15.20000000          7.09459810         43.37742447
         15.30000000          7.20668782         44.35264417
         15.40000000          7.32146816         45.35354875
         15.50000000          7.43902619         46.38100573
         15.60000000          7.55945252         47.43591892
         15.70000000          7.68284151         48.51923028
         15.80000000          7.80929142         49.63192187
         15.90000000          7.93890462         50.77501782
         16.00000000          8.07178782         51.94958659
         16.10000000          8.20805226         53.15674322
         16.20000000          8.34781397         54.39765176
         16.30000000          8.49119398         55.67352792
         16.40000000          8.63831863         56.98564172
         16.50000000          8.78931983         58.33532051
         16.60000000          8.94433535         59.72395202
         16.70000000          9.10350914         61.15298765
         16.80000000          9.26699166         62.62394602
         16.90000000          9.43494025         64.13841669
         17.00000000          9.60751952         65.69806414
         17.10000000          9.78490172         67.30463200
         17.20000000          9.96726718         68.95994762
         17.30000000         10.15480482         70.66592682
         17.40000000         10.34771255         72.42457914
         17.50000000         10.54619789         74.23801327
         17.60000000         10.75047846         76.10844294
         17.70000000         10.96078260         78.03819325
         17.80000000         11.17735001         80.02970738
         17.90000000         11.40043245         82.08555378
         18.00000000         11.63029444         84.20843394
         18.10000000         11.86721406         86.40119060
         18.20000000         12.11148381         88.66681672
         18.30000000         12.36341147         91.00846495
         18.40000000         12.62332111         93.42945788
         18.50000000         12.89155411         95.93329911
         18.60000000         13.16847025         98.52368504
         18.70000000         13.45444900        101.20451764
         18.80000000         13.74989071        103.97991821
         18.90000000         14.05521808        106.85424219
         19.00000000         14.37087763        109.83209514
         19.10000000         14.69734133        112.91835000
         19.20000000         15.03510835        116.11816574
         19.30000000         15.38470698        119.43700756
         19.40000000         15.74669662        122.88066869
         19.50000000         16.12167005        126.45529405
         19.60000000         16.51025583        130.16740592
         19.70000000         16.91312085        134.02393170
         19.80000000         17.33097323        138.03223418
         19.90000000         17.76456531        142.20014435
         20.00000000         18.21469705        146.53599710
         20.10000000         18.68221960        151.04867017
         20.20000000         19.16803932        155.74762645
         20.30000000         19.67312199        160.64296031
         20.40000000         20.19849757        165.74544798
         20.50000000         20.74526533        171.06660275
         20.60000000         21.31459939        176.61873533
         20.70000000         21.90775489        182.41501982
         20.80000000         22.52607470        188.46956617
         20.90000000         23.17099673        194.79749956
         21.00000000         23.84406201        201.41504754
         21.10000000         24.54692353        208.33963587
         21.20000000         25.28135596        215.58999393
         21.30000000         26.04926634        223.18627071
         21.40000000         26.85270584        231.15016277
         21.50000000         27.69388273        239.50505529
         21.60000000         28.57517665        248.27617786
         21.70000000         29.49915443        257.49077661
         21.80000000         30.46858744        267.17830463
         21.90000000         31.48647091        277.37063268
         22.00000000         32.55604519        288.10228270
         22.10000000         33.68081931        299.41068647
         22.20000000         34.86459707        311.33647273
         22.30000000         36.11150597        323.92378557
         22.40000000         37.42602915        337.22063801
         22.50000000         38.81304094        351.27930460
         22.60000000         40.27784611        366.15675728
         22.70000000         41.82622341        381.91514946
         22.80000000         43.46447374        398.62235312
         22.90000000         45.19947344        416.35255457
         23.00000000         47.03873308        435.18691436
         23.10000000         48.99046233        455.21429721
         23.20000000         51.06364115        476.53207746
         23.30000000         53.26809788        499.24702542
         23.40000000         55.61459426        523.47627868
         23.50000000         58.11491764        549.34840114
         23.60000000         60.78198006        577.00452981
         23.70000000         63.62992355        606.59960518
         23.80000000         66.67423051        638.30367537
         23.90000000         69.93183710        672.30325526
         24.00000000         73.42124620        708.80270984
         24.10000000         77.16263514        748.02561359
         24.20000000         81.17795094        790.21601427
         24.30000000         85.49098276        835.63949704
         24.40000000         90.12739723        884.58390182
         24.50000000         95.11471702        937.35948957
         24.60000000        100.48221608        994.29827880
         24.70000000        106.26069636       1055.75217981
         24.80000000        112.48210043       1122.08943743
         24.90000000        119.17890201       1193.68875576
         25.00000000        126.38320297       1270.93032466
         25.10000000        134.12545248       1354.18281278
         25.20000000        142.43269397       1443.78526533
         25.30000000        151.32624406       1540.02279794
         25.40000000        160.81872203       1643.09509472
         25.50000000        170.91039009       1753.07712035
         25.60000000        181.58484826       1869.87230240
         25.70000000        192.80426803       1993.15990731
         25.80000000        204.50455828       2122.34056253
         25.90000000        216.59113118       2256.48686293
         26.00000000        228.93624335       2394.30942998
         26.10000000        241.37914991       2534.15186052
         26.20000000        253.73039455       2674.02930235
         26.30000000        265.78130010       2811.72308042
         26.40000000        277.31897662       2944.93620740
         26.50000000        288.14591327       3071.50137624
         26.60000000        298.10168177       3189.61627520
         26.70000000        307.08293309       3298.06580994
         26.80000000        315.05731816       3396.38365192
         26.90000000        322.06764656       3484.91151670
         27.00000000        328.22448639       3564.73391014
         27.10000000        333.68793094       3637.49299661
         27.20000000        338.64154224       3705.11347303
         27.30000000        343.26280795       3769.48286689
         27.40000000        347.69459029       3832.13563674
         27.50000000        352.02129603       3893.98260607
         27.60000000        356.25240472       3955.11633691
         27.70000000        360.31501770       4014.71303956
         27.80000000        364.05638897       4071.04430552
         27.90000000        367.25680637       4121.60561003
         28.00000000        369.65237653       4163.35946834
         28.10000000        370.96596952       4193.07632071
         28.20000000        370.94284368       4207.73597591
         28.30000000        369.38576238       4204.93186798
         28.40000000        366.18350071       4183.20827718
         28.50000000        361.32723009       4142.26546172
         28.60000000        354.91154609       4082.99207716
         28.70000000        347.12028974       4007.32229140
         28.80000000        338.20065876       3917.95382072
         28.90000000        328.43127904       3817.98950512
         29.00000000        318.09034442       3710.57197510
         29.10000000        307.42883387       3598.57006227
         29.20000000        296.65188582       3484.35455548
         29.30000000        285.90941594       3369.67840409
         29.40000000        275.29549494       3255.65825385
         29.50000000        264.85498006       3142.84190549
         29.60000000        254.59530251       3031.33876439
         29.70000000        244.50099707       2920.98589413
         29.80000000        234.54845915       2811.52030386
         29.90000000        224.71859081       2702.72940693
         30.00000000        215.00553903       2594.55737574
         30.10000000        205.42062430       2487.15537115
         30.20000000        195.99162069       2380.87625119
         30.30000000        186.75848232       2276.22579389
         30.40000000        177.76714857       2173.78939549
         30.50000000        169.06310118       2074.15422914
         30.60000000        160.68598191       1977.84290324
         30.70000000        152.66601713       1885.26813410
         30.80000000        145.02244109       1796.71131773
         30.90000000        137.76369148       1712.32275020
         31.00000000        130.88890733       1632.13813393
         31.10000000        124.39016951       1556.10473623
         31.20000000        118.25494936       1484.11070042
         31.30000000        112.46833394       1416.01213492
         31.40000000        107.01474597       1351.65435759
         31.50000000        101.87904130       1290.88566829
         31.60000000         97.04701338       1233.56384792
         31.70000000         92.50543537       1179.55688411
         31.80000000         88.24181515       1128.74003425
         31.90000000         84.24403234       1080.99131597
         32.00000000         80.49998856       1036.18707997
         32.10000000         76.99735279        994.19872632
