 electric dipole polarizability:    1599.9218478368743     
 m1, energy weight E*R sum:         60254.811088972339     
 m0, R(E) sum:                      3541.4106405148168     
 centroid m1/m0:                    17.014353094114231     
               E                R(E)           photodisintegration cross section
          0.00000000         20.51268195          0.00000000
          0.10000000         21.17346935          0.85169559
          0.20000000         21.86836110          1.75929476
          0.30000000         22.59972061          2.72719819
          0.40000000         23.37011278          3.76021931
          0.50000000         24.18232400          4.86362874
          0.60000000         25.03938427          6.04320423
          0.70000000         25.94459188          7.30528661
          0.80000000         26.90154071          8.65684251
          0.90000000         27.91415059         10.10553481
          1.00000000         28.98670107         11.65980179
          1.10000000         30.12386884         13.32894602
          1.20000000         31.33076930         15.12323430
          1.30000000         32.61300268         17.05401004
          1.40000000         33.97670509         19.13381948
          1.50000000         35.42860495         21.37655353
          1.60000000         36.97608533         23.79760704
          1.70000000         38.62725240         26.41405724
          1.80000000         40.39101048         29.24486354
          1.90000000         42.27714379         32.31109051
          2.00000000         44.29640494         35.63615606
          2.10000000         46.46060975         39.24610629
          2.20000000         48.78273772         43.16991826
          2.30000000         51.27703669         47.43983078
          2.40000000         53.95912916         52.09170227
          2.50000000         56.84611684         57.16539227
          2.60000000         59.95667763         62.70516041
          2.70000000         63.31114719         68.76007204
          2.80000000         66.93157378         75.38439331
          2.90000000         70.84173023         82.63794971
          3.00000000         75.06706163         90.58640968
          3.10000000         79.63453902         99.30143857
          3.20000000         84.57237989        108.86064573
          3.30000000         89.90958418        119.34721934
          3.40000000         95.67521991        130.84910669
          3.50000000        101.89737603        143.45755371
          3.60000000        108.60168282        157.26476543
          3.70000000        115.80928498        172.36039480
          3.80000000        123.53414337        188.82651617
          3.90000000        131.77954746        206.73070930
          4.00000000        140.53375259        226.11689353
          4.10000000        149.76473145        246.99364808
          4.20000000        159.41416718        269.31998457
          4.30000000        169.39103580        292.98895929
          4.40000000        179.56543696        317.81017617
          4.50000000        189.76371824        343.49314233
          4.60000000        199.76633614        369.63451061
          4.70000000        209.31017695        395.71323753
          4.80000000        218.09702894        421.09817831
          4.90000000        225.80933686        445.07208004
          5.00000000        232.13314338        466.87383189
          5.10000000        236.78631927        485.75710172
          5.20000000        239.54822779        501.05878591
          5.30000000        240.28557714        512.26649200
          5.40000000        238.96912799        519.07239671
          5.50000000        235.67749077        521.40257425
          5.60000000        230.58711834        519.41614520
          5.70000000        223.95079458        513.47563331
          5.80000000        216.06929127        504.09619214
          5.90000000        207.26168380        491.88480815
          6.00000000        197.83906384        477.48053806
          6.10000000        188.08464333        461.50408419
          6.20000000        178.24128583        444.52109132
          6.30000000        168.50593217        427.01990534
          6.40000000        159.02947197        409.40200649
          6.50000000        149.92031910        391.98209565
          6.60000000        141.25008588        374.99461566
          6.70000000        133.06010280        358.60392047
          6.80000000        125.36792787        342.91598984
          6.90000000        118.17333659        327.99027314
          7.00000000        111.46353819        313.85080047
          7.10000000        105.21752728        300.49608335
          7.20000000         99.40956928        287.90755701
          7.30000000         94.01186134        276.05644274
          7.40000000         88.99643266        264.90898847
          7.50000000         84.33636863        254.43012800
          7.60000000         80.00646764        244.58570145
          7.70000000         75.98346339        235.34348824
          7.80000000         72.24595731        226.67338426
          7.90000000         68.77419892        218.54707966
          8.00000000         65.54982604        210.93755432
          8.10000000         62.55563947        203.81862281
          8.20000000         59.77544830        197.16465817
          8.30000000         57.19399055        190.95052973
          8.40000000         54.79691297        185.15172166
          8.50000000         52.57078398        179.74455998
          8.60000000         50.50311331        174.70646592
          8.70000000         48.58235801        170.01616612
          8.80000000         46.79790375        165.65381720
          8.90000000         45.14002036        161.60103322
          9.00000000         43.59979756        157.84083077
          9.10000000         42.16907032        154.35752082
          9.20000000         40.84034343        151.13657936
          9.30000000         39.60672209        148.16452241
          9.40000000         38.46185198        145.42880036
          9.50000000         37.39986970        142.91771708
          9.60000000         36.41536219        140.62037209
          9.70000000         35.50333321        138.52662028
          9.80000000         34.65917478        136.62704319
          9.90000000         33.87864190        134.91292643
         10.00000000         33.15782935        133.37623934
         10.10000000         32.49314985        132.00961460
         10.20000000         31.88131321        130.80632660
         10.30000000         31.31930634        129.76026843
         10.40000000         30.80437411        128.86592763
         10.50000000         30.33400125        128.11836132
         10.60000000         29.90589509        127.51317121
         10.70000000         29.51796954        127.04647914
         10.80000000         29.16833009        126.71490359
         10.90000000         28.85525996        126.51553753
         11.00000000         28.57720742        126.44592798
         11.10000000         28.33277418        126.50405735
         11.20000000         28.12070483        126.68832680
         11.30000000         27.93987733        126.99754169
         11.40000000         27.78929441        127.43089904
         11.50000000         27.66807594        127.98797721
         11.60000000         27.57545208        128.66872757
         11.70000000         27.51075723        129.47346834
         11.80000000         27.47342479        130.40288039
         11.90000000         27.46298252        131.45800519
         12.00000000         27.47904862        132.64024469
         12.10000000         27.52132835        133.95136328
         12.20000000         27.58961132        135.39349179
         12.30000000         27.68376927        136.96913348
         12.40000000         27.80375435        138.68117220
         12.50000000         27.94959800        140.53288263
         12.60000000         28.12141021        142.52794273
         12.70000000         28.31937935        144.67044852
         12.80000000         28.54377243        146.96493122
         12.90000000         28.79493584        149.41637693
         13.00000000         29.07329657        152.03024894
         13.10000000         29.37936392        154.81251300
         13.20000000         29.71373170        157.76966545
         13.30000000         30.07708092        160.90876482
         13.40000000         30.47018307        164.23746680
         13.50000000         30.89390392        167.76406313
         13.60000000         31.34920787        171.49752461
         13.70000000         31.83716305        175.44754868
         13.80000000         32.35894699        179.62461193
         13.90000000         32.91585304        184.04002804
         14.00000000         33.50929759        188.70601173
         14.10000000         34.14082817        193.63574924
         14.20000000         34.81213238        198.84347608
         14.30000000         35.52504797        204.34456276
         14.40000000         36.28157391        210.15560944
         14.50000000         37.08388273        216.29455027
         14.60000000         37.93433424        222.78076872
         14.70000000         38.83549069        229.63522494
         14.80000000         39.79013355        236.88059656
         14.90000000         40.80128219        244.54143443
         15.00000000         41.87221447        252.64433506
         15.10000000         43.00648967        261.21813155
         15.20000000         44.20797386        270.29410536
         15.30000000         45.48086799        279.90622116
         15.40000000         46.82973913        290.09138751
         15.50000000         48.25955516        300.88974653
         15.60000000         49.77572315        312.34499591
         15.70000000         51.38413214        324.50474695
         15.80000000         53.09120060        337.42092325
         15.90000000         54.90392914        351.15020445
         16.00000000         56.82995917        365.75452062
         16.10000000         58.87763802        381.30160304
         16.20000000         61.05609134        397.86559796
         16.30000000         63.37530355        415.52775039
         16.40000000         65.84620708        434.37716587
         16.50000000         68.48078141        454.51165827
         16.60000000         71.29216279        476.03869286
         16.70000000         74.29476544        499.07643361
         16.80000000         77.50441543        523.75490431
         16.90000000         80.93849768        550.21727235
         17.00000000         84.61611706        578.62126365
         17.10000000         88.55827377        609.14071496
         17.20000000         92.78805301        641.96726719
         17.30000000         97.33082804        677.31219816
         17.40000000        102.21447508        715.40838635
         17.50000000        107.46959648        756.51238582
         17.60000000        113.12974716        800.90657718
         17.70000000        119.23165585        848.90133698
         17.80000000        125.81542913        900.83713653
         17.90000000        132.92472042        957.08643830
         18.00000000        140.60683898       1018.05519839
         18.10000000        148.91276400       1084.18370460
         18.20000000        157.89701606       1155.94637307
         18.30000000        167.61732118       1233.84998799
         18.40000000        178.13398181       1318.42969068
         18.50000000        189.50884254       1410.24180074
         18.60000000        201.80370694       1509.85228180
         18.70000000        215.07802686       1617.81935186
         18.80000000        229.38564864       1734.66840437
         18.90000000        244.77036899       1860.85709482
         19.00000000        261.26003718       1996.72824408
         19.10000000        278.85895667       2142.44825388
         19.20000000        297.53841631       2297.92924175
         19.30000000        317.22535264       2462.73438292
         19.40000000        337.78945571       2635.96836893
         19.50000000        359.02951851       2816.15882183
         19.60000000        380.66051213       3001.14013493
         19.70000000        402.30370014       3187.95827819
         19.80000000        423.48293980       3372.82249258
         19.90000000        443.63086351       3551.13518019
         20.00000000        462.10846727       3717.63114435
         20.10000000        478.24029832       3866.64767949
         20.20000000        491.36467806       3992.52532110
         20.30000000        500.89447534       4090.10686652
         20.40000000        506.37983890       4155.26713993
         20.50000000        507.56157126       4185.38072683
         20.60000000        504.40400783       4179.63276397
         20.70000000        497.09995565       4139.10502000
         20.80000000        486.04653574       4066.61972567
         20.90000000        471.79748002       3966.37962862
         21.00000000        455.00216687       3843.48451368
         21.10000000        436.34302963       3703.41920087
         21.20000000        416.48107141       3551.59556352
         21.30000000        396.01538366       3393.00137965
         21.40000000        375.45844007       3231.97520780
         21.50000000        355.22573218       3072.09933198
         21.60000000        335.63651477       2916.18673272
         21.70000000        316.92191679       2766.33252950
         21.80000000        299.23702685       2624.00223455
         21.90000000        282.67432951       2490.13482171
         22.00000000        267.27671186       2365.24523654
         22.10000000        253.04899404       2249.51692326
         22.20000000        239.96749512       2142.87959065
         22.30000000        227.98753509       2045.07077323
         22.40000000        217.04903098       1955.68203119
         22.50000000        207.08051023       1874.19217531
         22.60000000        198.00196458       1799.99092034
         22.70000000        189.72701772       1732.39696118
         22.80000000        182.16487921       1670.67461215
         22.90000000        175.22249598       1614.05273707
         23.00000000        168.80717783       1561.74858516
         23.10000000        162.82976355       1512.99728259
         23.20000000        157.20813309       1467.08531869
         23.30000000        151.87062393       1423.38398156
         23.40000000        146.75876453       1381.37718966
         23.50000000        141.82877236       1340.67830582
         23.60000000        137.05149442       1301.03252667
         23.70000000        132.41082050       1262.30469816
         23.80000000        127.90094029       1224.45568020
         23.90000000        123.52301682       1187.51243713
         24.00000000        119.28185667       1151.53729495
         24.10000000        115.18301378       1116.60059816
         24.20000000        111.23056505       1082.75920687
         24.30000000        107.42563424       1050.04177129
         24.40000000        103.76565515       1018.44090620
         24.50000000        100.24433683        987.91210593
         24.60000000         96.85227379        958.37903348
         24.70000000         93.57809340        929.74429379
         24.80000000         90.40994608        901.90390428
         24.90000000         87.33705507        874.76272091
         25.00000000         84.35100186        848.24758085
         25.10000000         81.44647096        822.31529589
         25.20000000         78.62131362        796.95392250
         25.30000000         75.87597339        772.17755291
         25.40000000         73.21248075        748.01656466
         25.50000000         70.63331328        724.50624785
         25.60000000         68.14040994        701.67674474
         25.70000000         65.73454046        679.54642239
         25.80000000         63.41510387        658.11954678
         25.90000000         61.18030809        637.38787787
         26.00000000         59.02759782        617.33490516
         26.10000000         56.95416624        597.94106656
         26.20000000         54.95740466        579.18843625
         26.30000000         53.03519650        561.06387476
         26.40000000         51.18602472        543.56026897
         26.50000000         49.40891360        526.67603157
         26.60000000         47.70325547        510.41335669
         26.70000000         46.06858230        494.77584012
         26.80000000         44.50433660        479.76603799
         26.90000000         43.00968500        465.38343170
         27.00000000         41.58340348        451.62312575
         27.10000000         40.22384689        438.47543702
         27.20000000         38.92899784        425.92634512
         27.30000000         37.69657354        413.95859035
         27.40000000         36.52415785        402.55307616
         27.50000000         35.40932388        391.69019834
         27.60000000         34.34972007        381.35079858
         27.70000000         33.34310772        371.51659727
         27.80000000         32.38735376        362.17013650
         27.90000000         31.48039458        353.29439419
         28.00000000         30.62018965        344.87227621
         28.10000000         29.80468059        336.88615858
         28.20000000         29.03176409        329.31757626
         28.30000000         28.29928037        322.14708310
         28.40000000         27.60501570        315.35426894
         28.50000000         26.94671672        308.91791343
         28.60000000         26.32211486        302.81625837
         28.70000000         25.72895760        297.02736590
         28.80000000         25.16504020        291.52948954
         28.90000000         24.62822760        286.30133758
         29.00000000         24.11645447        281.32208878
         29.10000000         23.62769566        276.57105934
         29.20000000         23.15990738        272.02702104
         29.30000000         22.71095149        267.66730479
         29.40000000         22.27852443        263.46694108
         29.50000000         21.86011647        259.39814338
         29.60000000         21.45302347        255.43040663
         29.70000000         21.05442299        251.53137738
         29.80000000         20.66151201        247.66848069
         29.90000000         20.27168830        243.81110573
         30.00000000         19.88274573        239.93300269
         30.10000000         19.49304819        236.01446874
         30.20000000         19.10164980        232.04392208
         30.30000000         18.70833875        228.01857610
         30.40000000         18.31359758        223.94410060
         30.50000000         17.91848795        219.83334800
         30.60000000         17.52448126        215.70438489
         30.70000000         17.13326382        211.57816863
         30.80000000         16.74654650        207.47623194
         30.90000000         16.36590400        203.41869073
         31.00000000         15.99266088        199.42279467
         31.10000000         15.62783115        195.50212186
         31.20000000         15.27210938        191.66640448
         31.30000000         14.92590368        187.92187983
         31.40000000         14.58939654        184.27200128
         31.50000000         14.26261812        180.71832131
         31.60000000         13.94551773        177.26136962
         31.70000000         13.63802262        173.90138645
         31.80000000         13.34007750        170.63882366
         31.90000000         13.05166283        167.47458286
         32.00000000         12.77279401        164.41001260
         32.10000000         12.50350675        161.44672556
