 electric dipole polarizability:    1507.6755513908979     
 m1, energy weight E*R sum:         60946.196389709949     
 m0, R(E) sum:                      3465.3421216529864     
 centroid m1/m0:                    17.587353355067375     
               E                R(E)           photodisintegration cross section
          0.00000000         18.85855461          0.00000000
          0.10000000         19.45204205          0.78245177
          0.20000000         20.07551235          1.61506130
          0.30000000         20.73100270          2.50169257
          0.40000000         21.42072090          3.44656481
          0.50000000         22.14706215          4.45429016
          0.60000000         22.91262748          5.52991582
          0.70000000         23.72024434          6.67897125
          0.80000000         24.57298936          7.90752103
          0.90000000         25.47421368          9.22222413
          1.00000000         26.42757108         10.63040047
          1.10000000         27.43704920         12.14010556
          1.20000000         28.50700423         13.76021444
          1.30000000         29.64219942         15.50051590
          1.40000000         30.84784778         17.37181840
          1.50000000         32.12965946         19.38606915
          1.60000000         33.49389411         21.55648774
          1.70000000         34.94741871         23.89771627
          1.80000000         36.49777131         26.42598759
          1.90000000         38.15323089         29.15931367
          2.00000000         39.92289370         32.11769606
          2.10000000         41.81675610         35.32336023
          2.20000000         43.84580369         38.80101547
          2.30000000         46.02210627         42.57814168
          2.40000000         48.35891735         46.68530356
          2.50000000         50.87077650         51.15649151
          2.60000000         53.57361127         56.02948698
          2.70000000         56.48483437         61.34624710
          2.80000000         59.62342915         67.15329970
          2.90000000         63.01001399         73.50213428
          3.00000000         66.66687201         80.44956668
          3.10000000         70.61792743         88.05804452
          3.20000000         74.88864346         96.39584574
          3.30000000         79.50580755        105.53710307
          3.40000000         84.49715938        115.56156164
          3.50000000         89.89080372        126.55394383
          3.60000000         95.71433500        138.60275505
          3.70000000        101.99358396        151.79831567
          3.80000000        108.75088067        166.22975128
          3.90000000        116.00271656        181.98062095
          4.00000000        123.75668726        199.12282395
          4.10000000        132.00761725        217.70841936
          4.20000000        140.73282205        237.75905326
          4.30000000        149.88657077        259.25285936
          4.40000000        159.39399189        282.10903781
          4.50000000        169.14493147        306.17087692
          4.60000000        178.98862187        331.18879251
          4.70000000        188.73040963        356.80597334
          4.80000000        198.13212426        382.55026671
          4.90000000        206.91778088        407.83666615
          5.00000000        214.78598908        431.98466319
          5.10000000        221.42951115        454.25326051
          5.20000000        226.56085923        473.89333708
          5.30000000        229.94092166        490.21264908
          5.40000000        231.40596354        502.64420812
          5.50000000        230.88770595        510.80586377
          5.60000000        228.42208258        514.53922694
          5.70000000        224.14464076        513.92008490
          5.80000000        218.27364988        509.23902745
          5.90000000        211.08469220        500.95778159
          6.00000000        202.88192125        489.65137135
          6.10000000        193.97099248        475.94744397
          6.20000000        184.63727090        460.47222322
          6.30000000        175.13102719        443.80891337
          6.40000000        165.65962607        426.47053070
          6.50000000        156.38557394        408.88616949
          6.60000000        147.42879420        391.39802055
          6.70000000        138.87149578        374.26592781
          6.80000000        130.76428195        357.67651220
          6.90000000        123.13252679        341.75451300
          7.00000000        115.98240527        326.57469274
          7.10000000        109.30624145        312.17324995
          7.20000000        103.08702645        298.55811829
          7.30000000         97.30206868        285.71780804
          7.40000000         91.92579939        273.62861412
          7.50000000         86.93179327        262.26013344
          7.60000000         82.29409441        251.57914604
          7.70000000         77.98796672        241.55203394
          7.80000000         73.99021033        232.14601897
          7.90000000         70.27919195        223.32956841
          8.00000000         66.83472434        215.07232205
          8.10000000         63.63789997        207.34484116
          8.20000000         60.67094631        200.11838859
          8.30000000         57.91713367        193.36484915
          8.40000000         55.36073767        187.05681281
          8.50000000         52.98704094        181.16778252
          8.60000000         50.78235064        175.67243736
          8.70000000         48.73400953        170.54687750
          8.80000000         46.83038526        165.76879429
          8.90000000         45.06083155        161.31753768
          9.00000000         43.41562430        157.17408319
          9.10000000         41.88588121        153.32092296
          9.20000000         40.46347547        149.74191591
          9.30000000         39.14095291        146.42212960
          9.40000000         37.91145846        143.34769753
          9.50000000         36.76867447        140.50570384
          9.60000000         35.70677043        137.88409730
          9.70000000         34.72036229        135.47163066
          9.80000000         33.80447903        133.25781834
          9.90000000         32.95453397        131.23290569
         10.00000000         32.16629945        129.38784409
         10.10000000         31.43588340        127.71426811
         10.20000000         30.75970726        126.20447243
         10.30000000         30.13448491        124.85138748
         10.40000000         29.55720243        123.64855379
         10.50000000         29.02509883        122.59009514
         10.60000000         28.53564768        121.67069125
         10.70000000         28.08653982        120.88555040
         10.80000000         27.67566711        120.23038270
         10.90000000         27.30110737        119.70137436
         11.00000000         26.96111042        119.29516335
         11.10000000         26.65408523        119.00881663
         11.20000000         26.37858817        118.83980930
         11.30000000         26.13331234        118.78600554
         11.40000000         25.91707779        118.84564159
         11.50000000         25.72882283        119.01731065
         11.60000000         25.56759602        119.29994974
         11.70000000         25.43254913        119.69282843
         11.80000000         25.32293079        120.19553954
         11.90000000         25.23808083        120.80799156
         12.00000000         25.17742527        121.53040286
         12.10000000         25.14047197        122.36329770
         12.20000000         25.12680676        123.30750384
         12.30000000         25.13609015        124.36415193
         12.40000000         25.16805454        125.53467643
         12.50000000         25.22250182        126.82081826
         12.60000000         25.29930149        128.22462911
         12.70000000         25.39838915        129.74847735
         12.80000000         25.51976541        131.39505569
         12.90000000         25.66349517        133.16739058
         13.00000000         25.82970731        135.06885338
         13.10000000         26.01859468        137.10317345
         13.20000000         26.23041458        139.27445315
         13.30000000         26.46548945        141.58718491
         13.40000000         26.72420807        144.04627058
         13.50000000         27.00702707        146.65704295
         13.60000000         27.31447282        149.42528990
         13.70000000         27.64714378        152.35728122
         13.80000000         28.00571322        155.45979820
         13.90000000         28.39093238        158.74016652
         14.00000000         28.80363415        162.20629243
         14.10000000         29.24473718        165.86670267
         14.20000000         29.71525056        169.73058846
         14.30000000         30.21627912        173.80785384
         14.40000000         30.74902923        178.10916895
         14.50000000         31.31481537        182.64602863
         14.60000000         31.91506742        187.43081683
         14.70000000         32.55133871        192.47687755
         14.80000000         33.22531496        197.79859292
         14.90000000         33.93882421        203.41146919
         15.00000000         34.69384773        209.33223143
         15.10000000         35.49253218        215.57892799
         15.20000000         36.33720301        222.17104566
         15.30000000         37.23037924        229.12963686
         15.40000000         38.17478989        236.47746008
         15.50000000         39.17339209        244.23913519
         15.60000000         40.22939115        252.44131517
         15.70000000         41.34626278        261.11287632
         15.80000000         42.52777766        270.28512899
         15.90000000         43.77802874        279.99205125
         16.00000000         45.10146142        290.27054818
         16.10000000         46.50290711        301.16073983
         16.20000000         47.98762037        312.70628125
         16.30000000         49.56132026        324.95471833
         16.40000000         51.23023618        337.95788375
         16.50000000         53.00115879        351.77233779
         16.60000000         54.88149667        366.45985921
         16.70000000         56.87933920        382.08799213
         16.80000000         59.00352647        398.73065538
         16.90000000         61.26372694        416.46882136
         17.00000000         63.67052366        435.39127223
         17.10000000         66.23550991        455.59544176
         17.20000000         68.97139518        477.18835175
         17.30000000         71.89212242        500.28765238
         17.40000000         75.01299743        525.02277594
         17.50000000         78.35083126        551.53621332
         17.60000000         81.92409630        579.98492177
         17.70000000         85.75309649        610.54187113
         17.80000000         89.86015179        643.39773254
         17.90000000         94.26979615        678.76270985
         18.00000000         99.00898773        716.86850638
         18.10000000        104.10732827        757.97041033
         18.20000000        109.59728718        802.34946659
         18.30000000        115.51442284        850.31468249
         18.40000000        121.89759008        902.20518484
         18.50000000        128.78911787        958.39220516
         18.60000000        136.23493433       1019.28071379
         18.70000000        144.28460715       1085.31044771
         18.80000000        152.99125545       1156.95597590
         18.90000000        162.41127344       1234.72531293
         19.00000000        172.60378640       1319.15642000
         19.10000000        183.62973462       1410.81071589
         19.20000000        195.55045090       1510.26245596
         19.30000000        208.42556307       1618.08252765
         19.40000000        222.31001644       1734.81487220
         19.50000000        237.24997769       1860.94341334
         19.60000000        253.27736003       1996.84712818
         19.70000000        270.40271615       2142.74086240
         19.80000000        288.60630345       2298.59987330
         19.90000000        307.82726928       2464.06716775
         20.00000000        327.95117366       2638.34485489
         20.10000000        348.79650444       2820.07434184
         20.20000000        370.10147007       3007.21552973
         20.30000000        391.51315234       3196.94209372
         20.40000000        412.58195075       3385.57756609
         20.50000000        432.76489872       3568.60323733
         20.60000000        451.44148837       3740.77050642
         20.70000000        467.94464213       3896.34317065
         20.80000000        481.60708701       4029.47606055
         20.90000000        491.81972097       4134.70568370
         21.00000000        498.09439827       4207.49228355
         21.10000000        500.12035111       4244.72303958
         21.20000000        497.80281457       4245.07712143
         21.30000000        491.27523814       4209.17375831
         21.40000000        480.88223532       4139.47136763
         21.50000000        467.13722033       4039.94365420
         21.60000000        450.66406154       3915.60661406
         21.70000000        432.13431523       3771.99287904
         21.80000000        412.21043679       3614.66332762
         21.90000000        391.50188191       3448.81854175
         22.00000000        370.53684321       3279.03803242
         22.10000000        349.74887432       3109.14498858
         22.20000000        329.47549976       2942.17482956
         22.30000000        309.96510281       2780.41767607
         22.40000000        291.38855790       2625.50523361
         22.50000000        273.85277448       2478.51778298
         22.60000000        257.41417749       2340.09386333
         22.70000000        242.09093950       2210.53181019
         22.80000000        227.87339862       2089.87760709
         22.90000000        214.73252304       1977.99725782
         23.00000000        202.62653946       1874.63421511
         23.10000000        191.50596872       1779.45360820
         23.20000000        181.31734934       1692.07544174
         23.30000000        172.00591582       1612.09889690
         23.40000000        163.51746039       1539.11959277
         23.50000000        155.79956174       1472.74131343
         23.60000000        148.80232173       1412.58336091
         23.70000000        142.47871438       1358.28439002
         23.80000000        136.78462159       1309.50332724
         23.90000000        131.67860566       1265.91776936
         24.00000000        127.12145085       1227.22009642
         24.10000000        123.07549331       1193.11142283
         24.20000000        119.50375352       1163.29346459
         24.30000000        116.36888974       1137.45844716
         24.40000000        113.63200799       1115.27735286
         24.50000000        111.25139725       1096.38714393
         24.60000000        109.18130833       1080.37811246
         24.70000000        107.37095754       1066.78316969
         24.80000000        105.76400000       1055.07157862
         24.90000000        104.29875859       1044.65012913
         25.00000000        102.90948262       1034.87472294
         25.10000000        101.52880975       1025.07441075
         25.20000000        100.09139807       1014.58788496
         25.30000000         98.53840103       1002.80942673
         25.40000000         96.82214793        989.23803344
         25.50000000         94.91018107        973.52107640
         25.60000000         92.78779972        955.48355688
         25.70000000         90.45851889        935.13642081
         25.80000000         87.94230820        912.66194469
         25.90000000         85.27197960        888.37941196
         26.00000000         82.48847027        862.69836236
         26.10000000         79.63590605        836.06839930
         26.20000000         76.75722722        808.93373104
         26.30000000         73.89089402        781.69808060
         26.40000000         71.06888014        754.70247621
         26.50000000         68.31589790        728.21568775
         26.60000000         65.64962536        702.43519680
         26.70000000         63.08162376        677.49563438
         26.80000000         60.61862326        653.48141172
         26.90000000         58.26389333        630.44057685
         27.00000000         56.01848081        608.39756458
         27.10000000         53.88217991        587.36332330
         27.20000000         51.85418050        567.34215633
         27.30000000         49.93341114        548.33536702
         27.40000000         48.11864055        530.34232458
         27.50000000         46.40842187        513.35981541
         27.60000000         44.80096063        497.38053396
         27.70000000         43.29396819        482.39137999
         27.80000000         41.88453785        468.37197328
         27.90000000         40.56905890        455.29356533
         28.00000000         39.34317037        443.11837625
         28.10000000         38.20175104        431.79933161
         28.20000000         37.13894519        421.28020108
         28.30000000         36.14822968        411.49621465
         28.40000000         35.22253464        402.37530680
         28.50000000         34.35443197        393.84016796
         28.60000000         33.53640069        385.81122481
         28.70000000         32.76116360        378.21050819
         28.80000000         32.02206840        370.96611722
         28.90000000         31.31346381        364.01671768
         29.00000000         30.63100653        357.31532372
         29.10000000         29.97183562        350.83160228
         29.20000000         29.33457082        344.55215140
         29.30000000         28.71912514        338.47858930
         29.40000000         28.12635926        332.62372740
         29.50000000         27.55763348        327.00644442
         29.60000000         27.01432489        321.64603753
         29.70000000         26.49737252        316.55679236
         29.80000000         26.00689850        311.74335327
         29.90000000         25.54193580        307.19728501
         30.00000000         25.10028054        302.89507099
         30.10000000         24.67847974        298.79771642
         30.20000000         24.27196205        294.85208511
         30.30000000         23.87531333        290.99403334
         30.40000000         23.48268614        287.15324799
         30.50000000         23.08831056        283.25942595
         30.60000000         22.68704671        279.24909070
         30.70000000         22.27489714        275.07204653
         30.80000000         21.84939060        270.69636317
         30.90000000         21.40976579        266.11096620
         31.00000000         20.95692234        261.32536984
         31.10000000         20.49315599        256.36669859
         31.20000000         20.02173906        251.27470219
         31.30000000         19.54643236        246.09580714
         31.40000000         19.07101659        240.87729638
         31.50000000         18.59891321        235.66250919
         31.60000000         18.13293601        230.48761156
         31.70000000         17.67518475        225.38011708
         31.80000000         17.22706642        220.35901585
         31.90000000         16.78941195        215.43613260
         32.00000000         16.36264615        210.61819809
         32.10000000         15.94696707        205.90908354
