 electric dipole polarizability:    1317.8135532750723     
 m1, energy weight E*R sum:         63187.471876267402     
 m0, R(E) sum:                      3324.5612250459008     
 centroid m1/m0:                    19.006259051642221     
               E                R(E)           photodisintegration cross section
          0.00000000         15.44764533          0.00000000
          0.10000000         15.90446757          0.63975179
          0.20000000         16.38309729          1.31800902
          0.30000000         16.88494048          2.03757294
          0.40000000         17.41151547          2.80148912
          0.50000000         17.96446349          3.61307213
          0.60000000         18.54556034          4.47593309
          0.70000000         19.15672934          5.39401040
          0.80000000         19.80005564          6.37160396
          0.90000000         20.47780210          7.41341354
          1.00000000         21.19242688          8.52458154
          1.10000000         21.94660301          9.71074095
          1.20000000         22.74324007         10.97806904
          1.30000000         23.58550832         12.33334752
          1.40000000         24.47686539         13.78403005
          1.50000000         25.42108611         15.33831797
          1.60000000         26.42229544         17.00524537
          1.70000000         27.48500516         18.79477453
          1.80000000         28.61415452         20.71790317
          1.90000000         29.81515520         22.78678482
          2.00000000         31.09394119         25.01486390
          2.10000000         32.45702365         27.41702718
          2.20000000         33.91155139         30.00977333
          2.30000000         35.46537709         32.81140246
          2.40000000         37.12712953         35.84222739
          2.50000000         38.90629173         39.12480838
          2.60000000         40.81328490         42.68421263
          2.70000000         42.85955738         46.54829968
          2.80000000         45.05767748         50.74803249
          2.90000000         47.42142807         55.31781304
          3.00000000         49.96589986         60.29583917
          3.10000000         52.70757849         65.72447624
          3.20000000         55.66441865         71.65063306
          3.30000000         58.85589531         78.12612539
          3.40000000         62.30301846         85.20800179
          3.50000000         66.02829230         92.95879500
          3.60000000         70.05559357        101.44664616
          3.70000000         74.40993470        110.74522845
          3.80000000         79.11706733        120.93336940
          3.90000000         84.20286856        132.09423677
          4.00000000         89.69243819        144.31391122
          4.10000000         95.60881936        157.67912014
          4.20000000        101.97124158        172.27385554
          4.30000000        108.79277586        188.17455143
          4.40000000        116.07729607        205.44346696
          4.50000000        123.81566599        224.11993492
          4.60000000        131.98113506        244.20922570
          4.70000000        140.52404273        265.66899283
          4.80000000        149.36612045        288.39366371
          4.90000000        158.39495055        312.19776422
          5.00000000        167.45948056        336.80002880
          5.10000000        176.36784828        361.81116833
          5.20000000        184.88903748        386.72912551
          5.30000000        192.75988793        410.94614486
          5.40000000        199.69853230        433.77149446
          5.50000000        205.42429349        454.47172357
          5.60000000        209.68250608        472.32681430
          5.70000000        212.27097384        486.69607504
          5.80000000        213.06346480        497.08350805
          5.90000000        212.02544727        503.19043316
          6.00000000        209.21853936        504.94466970
          6.10000000        204.79262738        502.50053525
          6.20000000        198.96746822        496.21071626
          6.30000000        192.00780040        486.57724804
          6.40000000        184.19684664        474.19234729
          6.50000000        175.81252931        459.67994262
          6.60000000        167.10921829        443.64615210
          6.70000000        158.30608047        426.64314771
          6.80000000        149.58166090        409.14725307
          6.90000000        141.07345883        391.54959681
          7.00000000        132.88095663        374.15638589
          7.10000000        125.07065233        357.19563213
          7.20000000        117.68194115        340.82755239
          7.30000000        110.73303496        325.15649928
          7.40000000        104.22641012        310.24291705
          7.50000000         98.15350297        296.11434225
          7.60000000         92.49853071        282.77486416
          7.70000000         87.24142489        270.21275862
          7.80000000         82.35994162        258.40624707
          7.90000000         77.83106807        247.32752836
          8.00000000         73.63187713        236.94537455
          8.10000000         69.73999163        227.22666044
          8.20000000         66.13380501        218.13720230
          8.30000000         62.79257604        209.64222890
          8.40000000         59.69647802        201.70672186
          8.50000000         56.82664835        194.29576906
          8.60000000         54.16525601        187.37499198
          8.70000000         51.69558422        180.91104248
          8.80000000         49.40211347        174.87212072
          8.90000000         47.27058483        169.22844272
          9.00000000         45.28802560        163.95258659
          9.10000000         43.44272642        159.01966767
          9.20000000         41.72416992        154.40732834
          9.30000000         40.12292073        150.09556648
          9.40000000         38.63049359        146.06645420
          9.50000000         37.23921730        142.30380922
          9.60000000         35.94210937        138.79287446
          9.70000000         34.73277018        135.52004364
          9.80000000         33.60529979        132.47265046
          9.90000000         32.55423576        129.63882164
         10.00000000         31.57450820        127.00738395
         10.10000000         30.66140712        124.56781060
         10.20000000         29.81055788        122.31019295
         10.30000000         29.01790140        120.22522577
         10.40000000         28.27967670        118.30419788
         10.50000000         27.59240455        116.53898300
         10.60000000         26.95287151        114.92202823
         10.70000000         26.35811399        113.44633901
         10.80000000         25.80540246        112.10546078
         10.90000000         25.29222590        110.89345789
         11.00000000         24.81627666        109.80489052
         11.10000000         24.37543590        108.83479047
         11.20000000         23.96775966        107.97863665
         11.30000000         23.59146583        107.23233071
         11.40000000         23.24492187        106.59217353
         11.50000000         22.92663346        106.05484266
         11.60000000         22.63523400        105.61737119
         11.70000000         22.36947497        105.27712797
         11.80000000         22.12821708        105.03179957
         11.90000000         21.91042226        104.87937358
         12.00000000         21.71514630        104.81812378
         12.10000000         21.54153224        104.84659660
         12.20000000         21.38880436        104.96359929
         12.30000000         21.25626276        105.16818948
         12.40000000         21.14327852        105.45966607
         12.50000000         21.04928928        105.83756161
         12.60000000         20.97379539        106.30163587
         12.70000000         20.91635638        106.85187063
         12.80000000         20.87658790        107.48846573
         12.90000000         20.85415900        108.21183626
         13.00000000         20.84878975        109.02261080
         13.10000000         20.86024916        109.92163081
         13.20000000         20.88835341        110.90995112
         13.30000000         20.93296439        111.98884138
         13.40000000         20.99398843        113.15978869
         13.50000000         21.07137536        114.42450122
         13.60000000         21.16511775        115.78491290
         13.70000000         21.27525042        117.24318929
         13.80000000         21.40185015        118.80173447
         13.90000000         21.54503562        120.46319918
         14.00000000         21.70496759        122.23049014
         14.10000000         21.88184924        124.10678065
         14.20000000         22.07592680        126.09552250
         14.30000000         22.28749034        128.20045937
         14.40000000         22.51687485        130.42564163
         14.50000000         22.76446145        132.77544285
         14.60000000         23.03067898        135.25457794
         14.70000000         23.31600572        137.86812328
         14.80000000         23.62097143        140.62153865
         14.90000000         23.94615967        143.52069154
         15.00000000         24.29221041        146.57188365
         15.10000000         24.65982296        149.78188003
         15.20000000         25.04975920        153.15794100
         15.30000000         25.46284727        156.70785705
         15.40000000         25.89998555        160.43998715
         15.50000000         26.36214715        164.36330066
         15.60000000         26.85038481        168.48742326
         15.70000000         27.36583635        172.82268728
         15.80000000         27.90973065        177.38018687
         15.90000000         28.48339425        182.17183853
         16.00000000         29.08825863        187.21044752
         16.10000000         29.72586818        192.50978080
         16.20000000         30.39788907        198.08464715
         16.30000000         31.10611889        203.95098532
         16.40000000         31.85249738        210.12596097
         16.50000000         32.63911823        216.62807351
         16.60000000         33.46824201        223.47727378
         16.70000000         34.34231058        230.69509387
         16.80000000         35.26396285        238.30479055
         16.90000000         36.23605225        246.33150356
         17.00000000         37.26166608        254.80243081
         17.10000000         38.34414681        263.74702225
         17.20000000         39.48711572        273.19719455
         17.30000000         40.69449904        283.18756918
         17.40000000         41.97055693        293.75573648
         17.50000000         43.31991556        304.94254886
         17.60000000         44.74760278        316.79244653
         17.70000000         46.25908755        329.35381961
         17.80000000         47.86032390        342.67941090
         17.90000000         49.55779954        356.82676404
         18.00000000         51.35858997        371.85872236
         18.10000000         53.27041852        387.84398426
         18.20000000         55.30172302        404.85772148
         18.30000000         57.46172974        422.98226726
         18.40000000         59.76053539        442.30788192
         18.50000000         62.20919801        462.93360380
         18.60000000         64.81983733        484.96819401
         18.70000000         67.60574562        508.53118356
         18.80000000         70.58150960        533.75403111
         18.90000000         73.76314408        560.78139917
         19.00000000         77.16823765        589.77255507
         19.10000000         80.81611060        620.90290054
         19.20000000         84.72798451        654.36562983
         19.30000000         88.92716234        690.37351035
         19.40000000         93.43921676        729.16077049
         19.50000000         98.29218263        770.98506662
         19.60000000        103.51674788        816.12948229
         19.70000000        109.14643324        864.90448701
         19.80000000        115.21774798        917.64974552
         19.90000000        121.77030239        974.73561980
         20.00000000        128.84685092       1036.56413973
         20.10000000        136.49322980       1103.56913071
         20.20000000        144.75814022       1176.21507219
         20.30000000        153.69271253       1254.99411514
         20.40000000        163.34976705       1340.42050494
         20.50000000        173.78266412       1433.02143869
         20.60000000        185.04361037       1533.32313906
         20.70000000        197.18126236       1641.83066928
         20.80000000        210.23744787       1758.99978650
         20.90000000        224.24281676       1885.19900576
         21.00000000        239.21125223       2020.66014275
         21.10000000        255.13293740       2165.41609465
         21.20000000        271.96610712       2319.22573624
         21.30000000        289.62774811       2481.48781452
         21.40000000        307.98386197       2651.14883575
         21.50000000        326.84037259       2826.61417616
         21.60000000        345.93629102       3005.67661099
         21.70000000        364.94121892       3185.48106573
         21.80000000        383.45946381       3362.54674256
         21.90000000        401.04268331       3532.86537346
         22.00000000        417.21184847       3692.08499447
         22.10000000        431.48741138       3835.77195307
         22.20000000        443.42425582       3959.72290874
         22.30000000        452.64608781       4060.28024489
         22.40000000        458.87332048       4134.59716177
         22.50000000        461.93980343       4180.80853712
         22.60000000        461.79668388       4198.08884107
         22.70000000        458.50511218       4186.60912181
         22.80000000        452.22191973       4147.42777878
         22.90000000        443.18281267       4082.35499577
         23.00000000        431.68614912       3993.81851700
         23.10000000        418.07809257       3884.73829453
         23.20000000        402.73820994       3758.40170275
         23.30000000        386.06421027       3618.32722178
         23.40000000        368.45538378       3468.11220582
         23.50000000        350.29562412       3311.27271342
         23.60000000        331.93784539       3151.09248171
         23.70000000        313.69170417       2990.49964697
         23.80000000        295.81589577       2831.98429230
         23.90000000        278.51532309       2677.56098102
         24.00000000        261.94256135       2528.77207773
         24.10000000        246.20250709       2386.72229245
         24.20000000        231.35894536       2252.13301825
         24.30000000        217.44189744       2125.40588434
         24.40000000        204.45488738       2006.68728478
         24.50000000        192.38157225       1895.92839061
         24.60000000        181.19144881       1792.93762326
         24.70000000        170.84454844       1697.42445332
         24.80000000        161.29516103       1609.03464466
         24.90000000        152.49469820       1527.37777818
         25.00000000        144.39383360       1452.04819553
         25.10000000        136.94405599       1382.64053175
         25.20000000        130.09875345       1318.76086893
         25.30000000        123.81392216       1260.03433185
         25.40000000        118.04856986       1206.10973418
         25.50000000        112.76486553       1156.66171983
         25.60000000        107.92807637       1111.39074979
         25.70000000        103.50632837       1070.02124983
         25.80000000         99.47022498       1032.29822852
         25.90000000         95.79235693        997.98266813
         26.00000000         92.44673315        966.84597300
         26.10000000         89.40816077        938.66374560
         26.20000000         86.65160353        913.20918540
         26.30000000         84.15155630        890.24650341
         26.40000000         81.88149004        869.52493363
         26.50000000         79.81344431        850.77418328
         26.60000000         77.91786703        833.70243111
         26.70000000         76.16381267        817.99813486
         26.80000000         74.51959445        803.33678275
         26.90000000         72.95393187        789.39316030
         27.00000000         71.43753551        775.85864512
         27.10000000         69.94494395        762.46163006
         27.20000000         68.45630752        748.98781066
         27.30000000         66.95875478        735.29631838
         27.40000000         65.44701770        721.32801563
         27.50000000         63.92313866        707.10378290
         27.60000000         62.39529023        692.71288684
         27.70000000         60.87593636        678.29372490
         27.80000000         59.37968209        664.01064221
         27.90000000         57.92117064        650.03076237
         28.00000000         56.51331110        636.50403406
         28.10000000         55.16600299        623.54846493
         28.20000000         53.88541268        611.24130945
         28.30000000         52.67377974        599.61611297
         28.40000000         51.52968989        588.66504046
         28.50000000         50.44873407        578.34569695
         28.60000000         49.42446079        568.59148163
         28.70000000         48.44951088        559.32427665
         28.80000000         47.51679948        550.46795820
         28.90000000         46.62059312        541.96097209
         29.00000000         45.75733500        533.76623306
         29.10000000         44.92611042        525.87701011
         29.20000000         44.12871002        518.31820099
         29.30000000         43.36932303        511.14326098
         29.40000000         42.65395178        504.42776112
         29.50000000         41.98966732        498.26092007
         29.60000000         41.38382256        492.73645001
         29.70000000         40.84331309        487.94378282
         29.80000000         40.37394080        483.96034973
         29.90000000         39.97990234        480.84520884
         30.00000000         39.66340031        478.63403091
         30.10000000         39.42436245        477.33529758
         30.20000000         39.26025130        476.92753199
         30.30000000         39.16595241        477.35744048
         30.40000000         39.13373852        478.53895663
         30.50000000         39.15331807        480.35331009
         30.60000000         39.21198614        482.65036926
         30.70000000         39.29490451        485.25161455
         30.80000000         39.38554222        487.95516706
         30.90000000         39.46630509        490.54327266
         31.00000000         39.51936601        492.79244208
         31.10000000         39.52767105        494.48599016
         31.20000000         39.47604015        495.42800459
         31.30000000         39.35221876        495.45696411
         31.40000000         39.14769525        494.45665073
         31.50000000         38.85810662        492.36204324
         31.60000000         38.48312869        489.15875569
         31.70000000         38.02587117        484.87613651
         31.80000000         37.49193023        479.57583991
         31.90000000         36.88833791        473.33884467
         32.00000000         36.22265416        466.25405687
         32.10000000         35.50237387        458.41075837
