 electric dipole polarizability:    1771.2818890360086     
 m1, energy weight E*R sum:         47573.163161466226     
 m0, R(E) sum:                      3720.2073065873255     
 centroid m1/m0:                    12.787772089267447     
               E                R(E)           photodisintegration cross section
          0.00000000         18.22041610          0.00000000
          0.10000000         18.61712636          0.74886757
          0.20000000         19.02718477          1.53072405
          0.30000000         19.45119966          2.34725365
          0.40000000         19.88981433          3.20024403
          0.50000000         20.34370942          4.09159392
          0.60000000         20.81360555          5.02332117
          0.70000000         21.30026609          5.99757165
          0.80000000         21.80450029          7.01662879
          0.90000000         22.32716651          8.08292402
          1.00000000         22.86917589          9.19904812
          1.10000000         23.43149618         10.36776349
          1.20000000         24.01515598         11.59201765
          1.30000000         24.62124935         12.87495781
          1.40000000         25.25094080         14.21994692
          1.50000000         25.90547074         15.63058107
          1.60000000         26.58616136         17.11070858
          1.70000000         27.29442316         18.66445090
          1.80000000         28.03176195         20.29622541
          1.90000000         28.79978660         22.01077055
          2.00000000         29.60021742         23.81317330
          2.10000000         30.43489542         25.70889937
          2.20000000         31.30579241         27.70382644
          2.30000000         32.21502205         29.80428069
          2.40000000         33.16485205         32.01707710
          2.50000000         34.15771749         34.34956383
          2.60000000         35.19623550         36.80967125
          2.70000000         36.28322145         39.40596611
          2.80000000         37.42170672         42.14771144
          2.90000000         38.61495832         45.04493289
          3.00000000         39.86650054         48.10849222
          3.10000000         41.18013885         51.35016889
          3.20000000         42.55998629         54.78275055
          3.30000000         44.01049273         58.42013371
          3.40000000         45.53647713         62.27743568
          3.50000000         47.14316338         66.37111923
          3.60000000         48.83621996         70.71913140
          3.70000000         50.62180389         75.34105841
          3.80000000         52.50660949         80.25829844
          3.90000000         54.49792246         85.49425449
          4.00000000         56.60367986         91.07454983
          4.10000000         58.83253661         97.02726873
          4.20000000         61.19393924        103.38322537
          4.30000000         63.69820755        110.17626435
          4.40000000         66.35662500        117.44359626
          4.50000000         69.18153855        125.22617226
          4.60000000         72.18646876        133.56910162
          4.70000000         75.38623079        142.52211662
          4.80000000         78.79706697        152.14008883
          4.90000000         82.43679131        162.48360095
          5.00000000         86.32494594        173.61957760
          5.10000000         90.48296920        185.62197769
          5.20000000         94.93437409        198.57254909
          5.30000000         99.70493503        212.56164399
          5.40000000        104.82287916        227.68908926
          5.50000000        110.31907652        244.06510056
          5.60000000        116.22722077        261.81122091
          5.70000000        122.58398822        281.06125321
          5.80000000        129.42915823        301.96214108
          5.90000000        136.80567179        324.67473189
          6.00000000        144.75959711        349.37432969
          6.10000000        153.33996147        376.25091147
          6.20000000        162.59839706        405.50883915
          6.30000000        172.58853588        437.36585002
          6.40000000        183.36507524        472.05105315
          6.50000000        194.98242308        509.80160176
          6.60000000        207.49282348        550.85765865
          6.70000000        220.94386025        595.45523281
          6.80000000        235.37524386        643.81645375
          6.90000000        250.81480769        696.13687536
          7.00000000        267.27367198        752.56947035
          7.10000000        284.74057641        813.20508282
          7.20000000        303.17542503        878.04923207
          7.30000000        322.50212531        946.99528570
          7.40000000        342.60084172       1019.79416155
          7.50000000        363.29985792       1096.02097955
          7.60000000        384.36742601       1175.03970973
          7.70000000        405.50437306       1255.96819878
          7.80000000        426.33889851       1337.64828599
          7.90000000        446.42585938       1418.62892463
          8.00000000        465.25361000       1497.17344133
          8.10000000        482.26162429       1571.30357756
          8.20000000        496.87110586       1638.89062367
          8.30000000        508.52827201       1697.79625438
          8.40000000        516.75628105       1746.05301529
          8.50000000        521.20793447       1782.05999134
          8.60000000        521.70892473       1804.75848899
          8.70000000        518.28192844       1813.75112383
          8.80000000        511.14563761       1809.33800948
          8.90000000        500.68878020       1792.46317467
          9.00000000        487.42513693       1764.58591233
          9.10000000        471.93935410       1727.50758146
          9.20000000        454.83389710       1683.18955246
          9.30000000        436.68515068       1633.59256672
          9.40000000        418.01282414       1580.55580841
          9.50000000        399.26302129       1525.72081065
          9.60000000        380.80266204       1470.49510997
          9.70000000        362.92174713       1416.04515721
          9.80000000        345.84000706       1363.30705754
          9.90000000        329.71524950       1313.00567879
         10.00000000        314.65169694       1265.67573525
         10.10000000        300.70744258       1221.68130146
         10.20000000        287.90071502       1181.23223794
         10.30000000        276.21495963       1144.39722648
         10.40000000        265.60291513       1111.11382803
         10.50000000        255.98998214       1081.19653451
         10.60000000        247.27729873       1054.34438373
         10.70000000        239.34505478       1030.15034503
         10.80000000        232.05664989       1008.11516903
         10.90000000        225.26425650        987.66840228
         11.00000000        218.81612276        968.19844204
         11.10000000        212.56550936        949.09164979
         11.20000000        206.38056077        929.77783055
         11.30000000        200.15382889        909.77651516
         11.40000000        193.80983613        888.73655069
         11.50000000        187.30919026        866.46156471
         11.60000000        180.64838996        842.91631596
         11.70000000        173.85540967        818.21313363
         11.80000000        166.98208378        792.58209946
         11.90000000        160.09489542        766.33175499
         12.00000000        153.26585417        739.80801457
         12.10000000        146.56478468        713.35774455
         12.20000000        140.05375847        687.30099806
         12.30000000        133.78381510        661.91323339
         12.40000000        127.79369306        637.41676498
         12.50000000        122.11007185        613.97950685
         12.60000000        116.74878536        591.71869658
         12.70000000        111.71653631        570.70747267
         12.80000000        107.01276073        550.98263761
         12.90000000        102.63141319        532.55246004
         13.00000000         98.56254585        515.40382930
         13.10000000         94.79362837        499.50842582
         13.20000000         91.31060369        484.82780768
         13.30000000         88.09870177        471.31745670
         13.40000000         85.14304555        458.92990152
         13.50000000         82.42908712        447.61706430
         13.60000000         79.94290968        437.33197906
         13.70000000         77.67142685        428.03001701
         13.80000000         75.60250554        419.66973529
         13.90000000         73.72503325        412.21344533
         14.00000000         72.02894644        405.62757770
         14.10000000         70.50523249        399.88290416
         14.20000000         69.14591467        394.95466349
         14.30000000         67.94402738        390.82262686
         14.40000000         66.89358644        387.47112960
         14.50000000         65.98955843        384.88908960
         14.60000000         65.22783157        383.07002742
         14.70000000         64.60518992        382.01209914
         14.80000000         64.11929209        381.71814981
         14.90000000         63.76865513        382.19579293
         15.00000000         63.55264393        383.45751879
         15.10000000         63.47146585        385.52083282
         15.20000000         63.52617044        388.40842289
         15.30000000         63.71865335        392.14835307
         15.40000000         64.05166381        396.77427996
         15.50000000         64.52881454        402.32568633
         15.60000000         65.15459309        408.84812566
         15.70000000         65.93437315        416.39346977
         15.80000000         66.87442456        425.02015064
         15.90000000         67.98192040        434.79338580
         16.00000000         69.26493940        445.78537582
         16.10000000         70.73246205        458.07546083
         16.20000000         72.39435799        471.75022011
         16.30000000         74.26136173        486.90349159
         16.40000000         76.34503149        503.63627426
         16.50000000         78.65768245        522.05645070
         16.60000000         81.21228052        542.27823019
         16.70000000         84.02227685        564.42116780
         16.80000000         87.10135847        588.60857692
         16.90000000         90.46309014        614.96514183
         17.00000000         94.12042963        643.61357887
         17.10000000         98.08511617        674.67030742
         17.20000000        102.36695778        708.24027454
         17.30000000        106.97307567        744.41130814
         17.40000000        111.90719426        783.24860745
         17.50000000        117.16908579        824.79015027
         17.60000000        122.75427759        869.04382601
         17.70000000        128.65409756        915.98690508
         17.80000000        134.85606101        965.56796478
         17.90000000        141.34449328       1017.71060500
         18.00000000        148.10115174       1072.31731054
         18.10000000        155.10549459       1129.27089130
         18.20000000        162.33418522       1188.43039158
         18.30000000        169.75946186       1249.61852691
         18.40000000        177.34615814       1312.59874187
         18.50000000        185.04741267       1377.04179374
         18.60000000        192.79940915       1442.48404673
         18.70000000        200.51578858       1508.28203067
         18.80000000        208.08263478       1573.56998653
         18.90000000        215.35513183       1637.22891223
         19.00000000        222.15710458       1697.87683615
         19.10000000        228.28462765       1753.89023802
         19.20000000        233.51462983       1803.46492026
         19.30000000        237.61882099       1844.72027721
         19.40000000        240.38228353       1875.84332528
         19.50000000        241.62481123       1895.25877022
         19.60000000        241.22186920       1901.80123759
         19.70000000        239.12136653       1894.85938025
         19.80000000        235.35271158       1874.46256913
         19.90000000        230.02599053       1841.29070926
         20.00000000        223.32124192       1796.60418054
         20.10000000        215.46999026       1742.10860263
         20.20000000        206.73269825       1679.78198130
         20.30000000        197.37616625       1611.69598108
         20.40000000        187.65420114       1539.85857213
         20.50000000        177.79353254       1466.09528100
         20.60000000        167.98551782       1391.97501061
         20.70000000        158.38306088       1318.77726988
         20.80000000        149.10154210       1247.49222074
         20.90000000        140.22238340       1178.84310231
         21.00000000        131.79800794       1113.32129678
         21.10000000        123.85724055       1051.22633264
         21.20000000        116.41051006        992.70550200
         21.30000000        109.45448850        937.78990871
         21.40000000        102.97600709        886.42541065
         21.50000000         96.95522454        838.49804096
         21.60000000         91.36810207        793.85417060
         21.70000000         86.18827772        752.31602391
         21.80000000         81.38844370        713.69328983
         21.90000000         76.94132723        677.79157203
         22.00000000         72.82036367        644.41835238
         22.10000000         69.00013640        613.38704441
         22.20000000         65.45664410        584.51961022
         22.30000000         62.16744258        557.64811795
         22.40000000         59.11169794        532.61553378
         22.50000000         56.27017854        509.27597292
         22.60000000         53.62520620        487.49457846
         22.70000000         51.16058168        467.14715335
         22.80000000         48.86149519        448.11963692
         22.90000000         46.71442948        430.30749184
         23.00000000         44.70706081        413.61504802
         23.10000000         42.82816141        397.95483591
         23.20000000         41.06750557        383.24693075
         23.30000000         39.41578086        369.41832230
         23.40000000         37.86450529        356.40231829
         23.50000000         36.40595061        344.13798678
         23.60000000         35.03307190        332.56963920
         23.70000000         33.73944323        321.64635444
         23.80000000         32.51919912        311.32154298
         23.90000000         31.36698146        301.55254909
         24.00000000         30.27789142        292.30028906
         24.10000000         29.24744611        283.52892281
         24.20000000         28.27153936        275.20555634
         24.30000000         27.34640645        267.29997239
         24.40000000         26.46859228        259.78438698
         24.50000000         25.63492276        252.63322924
         24.60000000         24.84247893        245.82294261
         24.70000000         24.08857377        239.33180508
         24.80000000         23.37073124        233.13976685
         24.90000000         22.68666735        227.22830356
         25.00000000         22.03427317        221.58028356
         25.10000000         21.41159941        216.17984787
         25.20000000         20.81684256        211.01230149
         25.30000000         20.24833234        206.06401496
         25.40000000         19.70452031        201.32233519
         25.50000000         19.18396963        196.77550446
         25.60000000         18.68534572        192.41258705
         25.70000000         18.20740785        188.22340245
         25.80000000         17.74900142        184.19846472
         25.90000000         17.30905107        180.32892725
         26.00000000         16.88655426        176.60653252
         26.10000000         16.48057560        173.02356620
         26.20000000         16.09024154        169.57281542
         26.30000000         15.71473560        166.24753050
         26.40000000         15.35329402        163.04139009
         26.50000000         15.00520173        159.94846926
         26.60000000         14.66978875        156.96321022
         26.70000000         14.34642683        154.08039558
         26.80000000         14.03452638        151.29512378
         26.90000000         13.73353369        148.60278651
         27.00000000         13.44292835        145.99904803
         27.10000000         13.16222089        143.47982606
         27.20000000         12.89095058        141.04127432
         27.30000000         12.62868348        138.67976634
         27.40000000         12.37501058        136.39188057
         27.50000000         12.12954609        134.17438665
         27.60000000         11.89192590        132.02423274
         27.70000000         11.66180612        129.93853380
         27.80000000         11.43886177        127.91456073
         27.90000000         11.22278551        125.94973037
         28.00000000         11.01328655        124.04159619
         28.10000000         10.81008953        122.18783969
         28.20000000         10.61293360        120.38626241
         28.30000000         10.42157150        118.63477852
         28.40000000         10.23576869        116.93140790
         28.50000000         10.05530259        115.27426979
         28.60000000          9.87996185        113.66157681
         28.70000000          9.70954569        112.09162938
         28.80000000          9.54386322        110.56281061
         28.90000000          9.38273293        109.07358147
         29.00000000          9.22598208        107.62247627
         29.10000000          9.07344620        106.20809849
         29.20000000          8.92496866        104.82911687
         29.30000000          8.78040017        103.48426175
         29.40000000          8.63959840        102.17232162
         29.50000000          8.50242759        100.89213996
         29.60000000          8.36875815         99.64261221
         29.70000000          8.23846639         98.42268297
         29.80000000          8.11143414         97.23134337
         29.90000000          7.98754846         96.06762861
         30.00000000          7.86670142         94.93061562
         30.10000000          7.74878974         93.81942090
         30.20000000          7.63371463         92.73319847
         30.30000000          7.52138151         91.67113796
         30.40000000          7.41169982         90.63246277
         30.50000000          7.30458280         89.61642841
         30.60000000          7.19994729         88.62232086
         30.70000000          7.09771357         87.64945511
         30.80000000          6.99780518         86.69717367
         30.90000000          6.90014875         85.76484530
         31.00000000          6.80467388         84.85186370
         31.10000000          6.71131294         83.95764632
         31.20000000          6.62000101         83.08163327
         31.30000000          6.53067568         82.22328618
         31.40000000          6.44327697         81.38208729
         31.50000000          6.35774723         80.55753843
         31.60000000          6.27403099         79.74916011
         31.70000000          6.19207488         78.95649075
         31.80000000          6.11182755         78.17908577
         31.90000000          6.03323954         77.41651689
         32.00000000          5.95626325         76.66837141
         32.10000000          5.88085279         75.93425148
