 electric dipole polarizability:    10745.360195872374     
 m1, energy weight E*R sum:         441379.57340134756     
 m0, R(E) sum:                      28320.492637752999     
 centroid m1/m0:                    15.585165803682413     
               E                R(E)           photodisintegration cross section
          0.00000000        100.67695889          0.00000000
          0.10000000        102.89479183          4.13890796
          0.20000000        105.19526456          8.46288738
          0.30000000        107.58275567         12.98243913
          0.40000000        110.06194184         17.70881651
          0.50000000        112.63782237         22.65409023
          0.60000000        115.31574605         27.83121968
          0.70000000        118.10144057         33.25413159
          0.80000000        121.00104483         38.93780657
          0.90000000        124.02114447         44.89837470
          1.00000000        127.16881082         51.15322107
          1.10000000        130.45164386         57.72110243
          1.20000000        133.87781951         64.62227636
          1.30000000        137.45614175         71.87864437
          1.40000000        141.19610013         79.51391059
          1.50000000        145.10793329         87.55375798
          1.60000000        149.20269916         96.02604419
          1.70000000        153.49235265        104.96101941
          1.80000000        157.98983154        114.39156904
          1.90000000        162.70915177        124.35348415
          2.00000000        167.66551297        134.88576319
          2.10000000        172.87541552        146.03094902
          2.20000000        178.35679044        157.83550540
          2.30000000        184.12914356        170.35023814
          2.40000000        190.21371560        183.63076635
          2.50000000        196.63365986        197.73805007
          2.60000000        203.41423946        212.73898122
          2.70000000        210.58304624        228.70704563
          2.80000000        218.17024339        245.72306475
          2.90000000        226.20883425        263.87602630
          3.00000000        234.73495951        283.26401417
          3.10000000        243.78822522        303.99524841
          3.20000000        253.41206366        326.18924670
          3.30000000        263.65412897        349.97811910
          3.40000000        274.56672882        375.50800748
          3.50000000        286.20729216        402.94068000
          3.60000000        298.63887201        432.45528923
          3.70000000        311.93067966        464.25029829
          3.80000000        326.15864357        498.54557376
          3.90000000        341.40598159        535.58463430
          4.00000000        357.76376861        575.63703013
          4.10000000        375.33147286        619.00080764
          4.20000000        394.21742148        666.00498407
          4.30000000        414.53913954        717.01191569
          4.40000000        436.42348419        772.41938507
          4.50000000        460.00646593        832.66215450
          4.60000000        485.43261062        898.21262645
          4.70000000        512.85366653        969.58011177
          4.80000000        542.42639938       1047.30802502
          4.90000000        574.30914438       1131.96809763
          5.00000000        608.65669916       1224.15042207
          5.10000000        645.61305085       1324.44782022
          5.20000000        685.30134629       1433.43269005
          5.30000000        727.81045954       1551.62417733
          5.40000000        773.17752298       1679.44333774
          5.50000000        821.36592657       1817.15405708
          5.60000000        872.23863651       1964.78811797
          5.70000000        925.52734103       2122.05425958
          5.80000000        980.79900209       2288.23373877
          5.90000000       1037.42293931       2462.06908149
          6.00000000       1094.54354180       2641.65847286
          6.10000000       1151.06581449       2824.37505343
          6.20000000       1205.66260833       3006.83680504
          6.30000000       1256.81259121       3184.95608328
          6.40000000       1302.87564481       3354.09466298
          6.50000000       1342.20658209       3509.33717332
          6.60000000       1373.29907187       3645.87217364
          6.70000000       1394.94133111       3759.43967911
          6.80000000       1406.35705197       3846.77587601
          6.90000000       1407.30317633       3905.97207905
          7.00000000       1398.10284274       3936.67475007
          7.10000000       1379.60594925       3940.08674264
          7.20000000       1353.08659691       3918.77622414
          7.30000000       1320.10012379       3876.34218744
          7.40000000       1282.32812755       3817.00970464
          7.50000000       1241.43709226       3745.22881920
          7.60000000       1198.96764581       3665.33295792
          7.70000000       1156.26117359       3581.28631896
          7.80000000       1114.42193229       3496.52493077
          7.90000000       1074.30762081       3413.87899653
          8.00000000       1036.53957243       3335.55610399
          8.10000000       1001.52437793       3263.16413911
          8.20000000        969.48066539       3197.75642735
          8.30000000        940.46702026       3139.88714541
          8.40000000        914.40905484       3089.67059708
          8.50000000        891.12513931       3046.84244623
          8.60000000        870.35116448       3010.82381008
          8.70000000        851.76489134       2980.78988313
          8.80000000        835.01002906       2955.74347644
          8.90000000        819.71939095       2934.59106724
          9.00000000        805.53569398       2916.21590634
          9.10000000        792.12825167       2899.54111341
          9.20000000        779.20428660       2883.57688996
          9.30000000        766.51480784       2867.45013060
          9.40000000        753.85646156       2850.42022689
          9.50000000        741.07172399       2831.88898344
          9.60000000        728.04968885       2811.41287597
          9.70000000        714.72847074       2788.72180496
          9.80000000        701.09848448       2763.74188185
          9.90000000        687.20446596       2736.61399549
         10.00000000        673.14379474       2707.69798994
         10.10000000        659.05960400       2677.55526048
         10.20000000        645.12883279       2646.90893478
         10.30000000        631.54698009       2616.58750621
         10.40000000        618.51219404       2587.46200611
         10.50000000        606.21125041       2560.38731532
         10.60000000        594.80917214       2536.15561660
         10.70000000        584.44316671       2515.46592586
         10.80000000        575.22061785       2498.90977343
         10.90000000        567.22028030       2486.97044384
         11.00000000        560.49561234       2480.03196380
         11.10000000        555.07924590       2478.39397293
         11.20000000        550.98780599       2482.28924757
         11.30000000        548.22654524       2491.90154703
         11.40000000        546.79348718       2507.38232605
         11.50000000        546.68294665       2528.86556552
         11.60000000        547.88841232       2556.48047659
         11.70000000        550.40484498       2590.36215106
         11.80000000        554.23047861       2630.66040608
         11.90000000        559.36822099       2677.54714691
         12.00000000        565.82674761       2731.22258715
         12.10000000        573.62137234       2791.92064652
         12.20000000        582.77476606       2859.91381260
         12.30000000        593.31758194       2935.51771404
         12.40000000        605.28903486       3019.09561616
         12.50000000        618.73747329       3111.06301846
         12.60000000        633.72097438       3211.89250740
         12.70000000        650.30798687       3322.11899771
         12.80000000        668.57804236       3442.34548029
         12.90000000        688.62255163       3573.24938348
         13.00000000        710.54570018       3715.58964507
         13.10000000        734.46545474       3870.21458540
         13.20000000        760.51469024       4038.07066294
         13.30000000        788.84244417       4220.21218322
         13.40000000        819.61530187       4417.81201650
         13.50000000        853.01891181       4632.17335547
         13.60000000        889.25962339       4864.74250897
         13.70000000        928.56623058       5117.12267413
         13.80000000        971.19179157       5391.08855163
         13.90000000       1017.41547642       5688.60155607
         14.00000000       1067.54436872       6011.82521407
         14.10000000       1121.91511252       6363.14011884
         14.20000000       1180.89524722       6745.15750029
         14.30000000       1244.88400858       7160.73004661
         14.40000000       1314.31228772       7612.95804123
         14.50000000       1389.64132617       8105.18811846
         14.60000000       1471.35957861       8641.00094329
         14.70000000       1559.97698916       9224.18283975
         14.80000000       1656.01569786       9858.67478680
         14.90000000       1759.99592301      10548.49025699
         15.00000000       1872.41546020      11297.59113333
         15.10000000       1993.72092840      12109.70855073
         15.20000000       2124.26863074      12988.09329998
         15.30000000       2264.27277956      13935.17902090
         15.40000000       2413.73902010      14952.14183040
         15.50000000       2572.38190810      16038.34386260
         15.60000000       2739.52656926      17190.65763217
         15.70000000       2913.99755824      18402.68582544
         15.80000000       3094.00227064      19663.91964901
         15.90000000       3277.02223893      20958.91946409
         16.00000000       3459.73281964      22266.65190937
         16.10000000       3637.97877761      23560.16963976
         16.20000000       3806.83748753      24806.85612141
         16.30000000       3960.79919314      25969.45318250
         16.40000000       4094.08117460      27008.01544071
         16.50000000       4201.06793356      27882.77694242
         16.60000000       4276.83539010      28557.68501197
         16.70000000       4317.68259456      29004.11109545
         16.80000000       4321.57322110      29204.08026083
         16.90000000       4288.39370706      29152.36081560
         17.00000000       4219.96927333      28856.96056947
         17.10000000       4119.83407356      28337.93575949
         17.20000000       3992.80808869      27624.80744118
         17.30000000       3844.47113075      26753.15976126
         17.40000000       3680.63270307      25761.08228065
         17.50000000       3506.87789572      24686.01958608
         17.60000000       3328.23587264      23562.37919598
         17.70000000       3148.98271822      22420.01606543
         17.80000000       2972.56421609      21283.52822108
         17.90000000       2801.61005086      20172.19202361
         18.00000000       2638.00755667      19100.33200345
         18.10000000       2483.00678615      18077.93652851
         18.20000000       2337.33554257      17111.37176904
         18.30000000       2201.31033983      16204.09345083
         18.40000000       2074.93550429      15357.29762076
         18.50000000       1957.98724932      14570.48350504
         18.60000000       1850.08255671      13841.92298600
         18.70000000       1750.73435562      13169.04363395
         18.80000000       1659.39513231      12548.73756672
         18.90000000       1575.49104762      11977.60866990
         19.00000000       1498.44818096      11452.16787664
         19.10000000       1427.71194473      10968.98231100
         19.20000000       1362.76028024      10524.78108958
         19.30000000       1303.11112661      10116.51984786
         19.40000000       1248.32486856       9741.40788612
         19.50000000       1198.00286524       9396.90516684
         19.60000000       1151.78349446       9080.69936803
         19.70000000       1109.33720378       8790.67411222
         19.80000000       1070.36178255       8524.87776042
         19.90000000       1034.57856585       8281.49852520
         20.00000000       1001.72975447       8058.84764551
         20.10000000        971.57666152       7855.34940678
         20.20000000        943.89854964       7669.53553702
         20.30000000        918.49175852       7500.04169208
         20.40000000        895.16892495       7345.60449059
         20.50000000        873.75815311       7205.05794958
         20.60000000        854.10195097       7077.32778209
         20.70000000        836.05565997       6961.42121894
         20.80000000        819.48509198       6856.40981867
         20.90000000        804.26326351       6761.40411830
         21.00000000        790.26648966       6675.52208732
         21.10000000        777.37053105       6597.85708806
         21.20000000        765.44775537       6527.45355963
         21.30000000        754.36620579       6463.29835305
         21.40000000        743.99103021       6404.33216518
         21.50000000        734.18805747       6349.47988445
         21.60000000        724.82864461       6297.69284293
         21.70000000        715.79450151       6247.99204183
         21.80000000        706.98117477       6199.50078327
         21.90000000        698.29925301       6151.45807148
         22.00000000        689.67302386       6103.20975259
         22.10000000        681.03706193       6054.18093842
         22.20000000        672.33183401       6003.83883033
         22.30000000        663.49968851       5951.65792939
         22.40000000        654.48245963       5897.09882723
         22.50000000        645.22138974       5839.60740024
         22.60000000        635.65930538       5778.63447219
         22.70000000        625.74420958       5713.66893440
         22.80000000        615.43293916       5644.27232843
         22.90000000        604.69348673       5570.10201174
         23.00000000        593.50506922       5490.91403601
         23.10000000        581.85590337       5406.54473389
         23.20000000        569.73960251       5316.87890383
         23.30000000        557.15174727       5221.81875506
         23.40000000        544.08821735       5121.26860041
         23.50000000        530.54626851       5015.14509784
         23.60000000        516.52834351       4903.41370362
         23.70000000        502.04762048       4786.14261027
         23.80000000        487.13370224       4663.55937158
         23.90000000        471.83681143       4536.09453753
         24.00000000        456.22931936       4404.40055980
         24.10000000        440.40416813       4269.34095092
         24.20000000        424.47048017       4131.95168299
         24.30000000        408.54718634       3993.38215916
         24.40000000        392.75575901       3854.82586267
         24.50000000        377.21312238       3717.45099931
         24.60000000        362.02560139       3582.33970529
         24.70000000        347.28445550       3450.44154120
         24.80000000        333.06321151       3322.54385551
         24.90000000        319.41672472       3199.25881409
         25.00000000        306.38169555       3081.02484076
         25.10000000        293.97826135       2968.11903708
         25.20000000        282.21225931       2860.67678933
         25.30000000        271.07779577       2758.71504040
         25.40000000        260.55983327       2662.15636170
         25.50000000        250.63659453       2570.85177297
         25.60000000        241.28166588       2484.60104697
         25.70000000        232.46574977       2403.16989346
         25.80000000        224.15806394       2326.30390007
         25.90000000        216.32741518       2253.73942039
         26.00000000        208.94299107       2185.21177126
         26.10000000        201.97491818       2120.46117022
         26.20000000        195.39463418       2059.23684559
         26.30000000        189.17511609       2001.29971505
         26.40000000        183.29100072       1946.42397389
         26.50000000        177.71862645       1894.39787476
         26.60000000        172.43601966       1845.02392426
         26.70000000        167.42284347       1798.11867204
         26.80000000        162.66032225       1753.51222606
         26.90000000        158.13115172       1711.04759411
         27.00000000        153.81940184       1670.57992475
         27.10000000        149.71041738       1631.97570013
         27.20000000        145.79071971       1595.11191766
         27.30000000        142.04791201       1559.87528562
         27.40000000        138.47058926       1526.16144910
         27.50000000        135.04825396       1493.87425655
         27.60000000        131.77123771       1462.92507250
         27.70000000        128.63062900       1433.23213902
         27.80000000        125.61820686       1404.71998620
         27.90000000        122.72638019       1377.31889049
         28.00000000        119.94813253       1350.96437888
         28.10000000        117.27697177       1325.59677626
         28.20000000        114.70688451       1301.16079303
         28.30000000        112.23229463       1277.60514992
         28.40000000        109.84802575       1254.88223702
         28.50000000        107.54926719       1232.94780412
         28.60000000        105.33154317       1211.76067946
         28.70000000        103.19068483       1191.28251448
         28.80000000        101.12280489       1171.47755196
         28.90000000         99.12427469       1152.31241548
         29.00000000         97.19170329       1133.75591803
         29.10000000         95.32191856       1115.77888809
         29.20000000         93.51194994       1098.35401132
         29.30000000         91.75901276       1081.45568643
         29.40000000         90.06049400       1065.05989392
         29.50000000         88.41393928       1049.14407630
         29.60000000         86.81704100       1033.68702883
         29.70000000         85.26762752       1018.66879967
         29.80000000         83.76365323       1004.07059859
         29.90000000         82.30318955        989.87471339
         30.00000000         80.88441658        976.06443339
         30.10000000         79.50561556        962.62397922
         30.20000000         78.16516182        949.53843837
         30.30000000         76.86151842        936.79370601
         30.40000000         75.59323024        924.37643051
         30.50000000         74.35891854        912.27396338
         30.60000000         73.15727600        900.47431298
         30.70000000         71.98706205        888.96610203
         30.80000000         70.84709866        877.73852816
         30.90000000         69.73626636        866.78132765
         31.00000000         68.65350065        856.08474177
         31.10000000         67.59778858        845.63948564
         31.20000000         66.56816565        835.43671940
         31.30000000         65.56371292        825.46802147
         31.40000000         64.58355428        815.72536364
         31.50000000         63.62685400        806.20108808
         31.60000000         62.69281436        796.88788582
         31.70000000         61.78067349        787.77877679
         31.80000000         60.88970339        778.86709120
         31.90000000         60.01920799        770.14645222
         32.00000000         59.16852143        761.61075977
         32.10000000         58.33700642        753.25417539
