 electric dipole polarizability:    7.1939643880911304E-004
 m1, energy weight E*R sum:        0.14290485200248293     
 m0, R(E) sum:                      3.4363831703480090E-003
 centroid m1/m0:                    41.585831648689712     
               E                R(E)           photodisintegration cross section
          0.00000000          0.00001690          0.00000000
          0.10000000          0.00001694          0.00000068
          0.20000000          0.00001698          0.00000137
          0.30000000          0.00001702          0.00000205
          0.40000000          0.00001706          0.00000275
          0.50000000          0.00001710          0.00000344
          0.60000000          0.00001715          0.00000414
          0.70000000          0.00001719          0.00000484
          0.80000000          0.00001723          0.00000554
          0.90000000          0.00001727          0.00000625
          1.00000000          0.00001731          0.00000696
          1.10000000          0.00001735          0.00000768
          1.20000000          0.00001739          0.00000839
          1.30000000          0.00001743          0.00000912
          1.40000000          0.00001748          0.00000984
          1.50000000          0.00001752          0.00001057
          1.60000000          0.00001756          0.00001130
          1.70000000          0.00001760          0.00001204
          1.80000000          0.00001764          0.00001277
          1.90000000          0.00001769          0.00001352
          2.00000000          0.00001773          0.00001426
          2.10000000          0.00001777          0.00001501
          2.20000000          0.00001781          0.00001576
          2.30000000          0.00001786          0.00001652
          2.40000000          0.00001790          0.00001728
          2.50000000          0.00001794          0.00001804
          2.60000000          0.00001799          0.00001881
          2.70000000          0.00001803          0.00001958
          2.80000000          0.00001808          0.00002036
          2.90000000          0.00001812          0.00002114
          3.00000000          0.00001816          0.00002192
          3.10000000          0.00001821          0.00002270
          3.20000000          0.00001825          0.00002349
          3.30000000          0.00001830          0.00002429
          3.40000000          0.00001834          0.00002509
          3.50000000          0.00001839          0.00002589
          3.60000000          0.00001843          0.00002669
          3.70000000          0.00001848          0.00002750
          3.80000000          0.00001852          0.00002831
          3.90000000          0.00001857          0.00002913
          4.00000000          0.00001861          0.00002995
          4.10000000          0.00001866          0.00003078
          4.20000000          0.00001871          0.00003160
          4.30000000          0.00001875          0.00003244
          4.40000000          0.00001880          0.00003327
          4.50000000          0.00001885          0.00003411
          4.60000000          0.00001889          0.00003496
          4.70000000          0.00001894          0.00003581
          4.80000000          0.00001899          0.00003666
          4.90000000          0.00001904          0.00003752
          5.00000000          0.00001908          0.00003838
          5.10000000          0.00001913          0.00003925
          5.20000000          0.00001918          0.00004012
          5.30000000          0.00001923          0.00004099
          5.40000000          0.00001928          0.00004187
          5.50000000          0.00001932          0.00004275
          5.60000000          0.00001937          0.00004364
          5.70000000          0.00001942          0.00004453
          5.80000000          0.00001947          0.00004542
          5.90000000          0.00001952          0.00004632
          6.00000000          0.00001957          0.00004723
          6.10000000          0.00001962          0.00004814
          6.20000000          0.00001967          0.00004905
          6.30000000          0.00001972          0.00004997
          6.40000000          0.00001977          0.00005089
          6.50000000          0.00001982          0.00005182
          6.60000000          0.00001987          0.00005275
          6.70000000          0.00001992          0.00005369
          6.80000000          0.00001997          0.00005463
          6.90000000          0.00002002          0.00005557
          7.00000000          0.00002007          0.00005652
          7.10000000          0.00002013          0.00005748
          7.20000000          0.00002018          0.00005844
          7.30000000          0.00002023          0.00005940
          7.40000000          0.00002028          0.00006037
          7.50000000          0.00002033          0.00006134
          7.60000000          0.00002039          0.00006232
          7.70000000          0.00002044          0.00006331
          7.80000000          0.00002049          0.00006429
          7.90000000          0.00002055          0.00006529
          8.00000000          0.00002060          0.00006629
          8.10000000          0.00002065          0.00006729
          8.20000000          0.00002071          0.00006830
          8.30000000          0.00002076          0.00006931
          8.40000000          0.00002081          0.00007033
          8.50000000          0.00002087          0.00007135
          8.60000000          0.00002092          0.00007238
          8.70000000          0.00002098          0.00007341
          8.80000000          0.00002103          0.00007445
          8.90000000          0.00002109          0.00007550
          9.00000000          0.00002114          0.00007655
          9.10000000          0.00002120          0.00007760
          9.20000000          0.00002126          0.00007866
          9.30000000          0.00002131          0.00007973
          9.40000000          0.00002137          0.00008080
          9.50000000          0.00002143          0.00008187
          9.60000000          0.00002148          0.00008295
          9.70000000          0.00002154          0.00008404
          9.80000000          0.00002160          0.00008513
          9.90000000          0.00002165          0.00008623
         10.00000000          0.00002171          0.00008733
         10.10000000          0.00002177          0.00008844
         10.20000000          0.00002183          0.00008956
         10.30000000          0.00002189          0.00009068
         10.40000000          0.00002195          0.00009180
         10.50000000          0.00002200          0.00009294
         10.60000000          0.00002206          0.00009407
         10.70000000          0.00002212          0.00009522
         10.80000000          0.00002218          0.00009637
         10.90000000          0.00002224          0.00009752
         11.00000000          0.00002230          0.00009868
         11.10000000          0.00002236          0.00009985
         11.20000000          0.00002242          0.00010102
         11.30000000          0.00002248          0.00010220
         11.40000000          0.00002255          0.00010338
         11.50000000          0.00002261          0.00010457
         11.60000000          0.00002267          0.00010577
         11.70000000          0.00002273          0.00010697
         11.80000000          0.00002279          0.00010818
         11.90000000          0.00002285          0.00010940
         12.00000000          0.00002292          0.00011062
         12.10000000          0.00002298          0.00011185
         12.20000000          0.00002304          0.00011308
         12.30000000          0.00002311          0.00011432
         12.40000000          0.00002317          0.00011557
         12.50000000          0.00002323          0.00011682
         12.60000000          0.00002330          0.00011808
         12.70000000          0.00002336          0.00011935
         12.80000000          0.00002343          0.00012062
         12.90000000          0.00002349          0.00012190
         13.00000000          0.00002356          0.00012319
         13.10000000          0.00002362          0.00012448
         13.20000000          0.00002369          0.00012578
         13.30000000          0.00002376          0.00012709
         13.40000000          0.00002382          0.00012840
         13.50000000          0.00002389          0.00012972
         13.60000000          0.00002396          0.00013105
         13.70000000          0.00002402          0.00013239
         13.80000000          0.00002409          0.00013373
         13.90000000          0.00002416          0.00013507
         14.00000000          0.00002423          0.00013643
         14.10000000          0.00002429          0.00013779
         14.20000000          0.00002436          0.00013916
         14.30000000          0.00002443          0.00014054
         14.40000000          0.00002450          0.00014192
         14.50000000          0.00002457          0.00014331
         14.60000000          0.00002464          0.00014471
         14.70000000          0.00002471          0.00014612
         14.80000000          0.00002478          0.00014753
         14.90000000          0.00002485          0.00014895
         15.00000000          0.00002492          0.00015038
         15.10000000          0.00002499          0.00015182
         15.20000000          0.00002507          0.00015326
         15.30000000          0.00002514          0.00015471
         15.40000000          0.00002521          0.00015617
         15.50000000          0.00002528          0.00015764
         15.60000000          0.00002536          0.00015911
         15.70000000          0.00002543          0.00016059
         15.80000000          0.00002550          0.00016208
         15.90000000          0.00002558          0.00016358
         16.00000000          0.00002565          0.00016509
         16.10000000          0.00002573          0.00016660
         16.20000000          0.00002580          0.00016812
         16.30000000          0.00002588          0.00016965
         16.40000000          0.00002595          0.00017119
         16.50000000          0.00002603          0.00017274
         16.60000000          0.00002610          0.00017429
         16.70000000          0.00002618          0.00017586
         16.80000000          0.00002626          0.00017743
         16.90000000          0.00002633          0.00017901
         17.00000000          0.00002641          0.00018060
         17.10000000          0.00002649          0.00018220
         17.20000000          0.00002657          0.00018380
         17.30000000          0.00002665          0.00018542
         17.40000000          0.00002672          0.00018704
         17.50000000          0.00002680          0.00018868
         17.60000000          0.00002688          0.00019032
         17.70000000          0.00002696          0.00019197
         17.80000000          0.00002704          0.00019363
         17.90000000          0.00002712          0.00019530
         18.00000000          0.00002720          0.00019697
         18.10000000          0.00002729          0.00019866
         18.20000000          0.00002737          0.00020036
         18.30000000          0.00002745          0.00020206
         18.40000000          0.00002753          0.00020378
         18.50000000          0.00002762          0.00020550
         18.60000000          0.00002770          0.00020723
         18.70000000          0.00002778          0.00020898
         18.80000000          0.00002787          0.00021073
         18.90000000          0.00002795          0.00021249
         19.00000000          0.00002803          0.00021426
         19.10000000          0.00002812          0.00021604
         19.20000000          0.00002821          0.00021784
         19.30000000          0.00002829          0.00021964
         19.40000000          0.00002838          0.00022145
         19.50000000          0.00002846          0.00022327
         19.60000000          0.00002855          0.00022510
         19.70000000          0.00002864          0.00022694
         19.80000000          0.00002873          0.00022880
         19.90000000          0.00002882          0.00023066
         20.00000000          0.00002890          0.00023253
         20.10000000          0.00002899          0.00023441
         20.20000000          0.00002908          0.00023631
         20.30000000          0.00002917          0.00023821
         20.40000000          0.00002926          0.00024013
         20.50000000          0.00002935          0.00024205
         20.60000000          0.00002944          0.00024399
         20.70000000          0.00002954          0.00024594
         20.80000000          0.00002963          0.00024789
         20.90000000          0.00002972          0.00024986
         21.00000000          0.00002981          0.00025184
         21.10000000          0.00002991          0.00025384
         21.20000000          0.00003000          0.00025584
         21.30000000          0.00003010          0.00025785
         21.40000000          0.00003019          0.00025988
         21.50000000          0.00003029          0.00026192
         21.60000000          0.00003038          0.00026396
         21.70000000          0.00003048          0.00026602
         21.80000000          0.00003057          0.00026810
         21.90000000          0.00003067          0.00027018
         22.00000000          0.00003077          0.00027228
         22.10000000          0.00003087          0.00027438
         22.20000000          0.00003096          0.00027650
         22.30000000          0.00003106          0.00027864
         22.40000000          0.00003116          0.00028078
         22.50000000          0.00003126          0.00028294
         22.60000000          0.00003136          0.00028510
         22.70000000          0.00003146          0.00028729
         22.80000000          0.00003156          0.00028948
         22.90000000          0.00003167          0.00029169
         23.00000000          0.00003177          0.00029391
         23.10000000          0.00003187          0.00029614
         23.20000000          0.00003197          0.00029838
         23.30000000          0.00003208          0.00030064
         23.40000000          0.00003218          0.00030291
         23.50000000          0.00003229          0.00030520
         23.60000000          0.00003239          0.00030749
         23.70000000          0.00003250          0.00030980
         23.80000000          0.00003260          0.00031213
         23.90000000          0.00003271          0.00031447
         24.00000000          0.00003282          0.00031682
         24.10000000          0.00003293          0.00031918
         24.20000000          0.00003303          0.00032156
         24.30000000          0.00003314          0.00032396
         24.40000000          0.00003325          0.00032636
         24.50000000          0.00003336          0.00032878
         24.60000000          0.00003347          0.00033122
         24.70000000          0.00003358          0.00033367
         24.80000000          0.00003370          0.00033613
         24.90000000          0.00003381          0.00033861
         25.00000000          0.00003392          0.00034111
         25.10000000          0.00003403          0.00034361
         25.20000000          0.00003415          0.00034614
         25.30000000          0.00003426          0.00034868
         25.40000000          0.00003438          0.00035123
         25.50000000          0.00003449          0.00035380
         25.60000000          0.00003461          0.00035638
         25.70000000          0.00003473          0.00035898
         25.80000000          0.00003484          0.00036160
         25.90000000          0.00003496          0.00036423
         26.00000000          0.00003508          0.00036687
         26.10000000          0.00003520          0.00036954
         26.20000000          0.00003532          0.00037221
         26.30000000          0.00003544          0.00037491
         26.40000000          0.00003556          0.00037762
         26.50000000          0.00003568          0.00038035
         26.60000000          0.00003580          0.00038309
         26.70000000          0.00003593          0.00038585
         26.80000000          0.00003605          0.00038863
         26.90000000          0.00003617          0.00039142
         27.00000000          0.00003630          0.00039423
         27.10000000          0.00003642          0.00039706
         27.20000000          0.00003655          0.00039990
         27.30000000          0.00003668          0.00040276
         27.40000000          0.00003680          0.00040564
         27.50000000          0.00003693          0.00040854
         27.60000000          0.00003706          0.00041145
         27.70000000          0.00003719          0.00041439
         27.80000000          0.00003732          0.00041734
         27.90000000          0.00003745          0.00042031
         28.00000000          0.00003758          0.00042329
         28.10000000          0.00003772          0.00042630
         28.20000000          0.00003785          0.00042932
         28.30000000          0.00003798          0.00043237
         28.40000000          0.00003812          0.00043543
         28.50000000          0.00003825          0.00043851
         28.60000000          0.00003839          0.00044161
         28.70000000          0.00003852          0.00044473
         28.80000000          0.00003866          0.00044787
         28.90000000          0.00003880          0.00045102
         29.00000000          0.00003894          0.00045420
         29.10000000          0.00003908          0.00045740
         29.20000000          0.00003922          0.00046062
         29.30000000          0.00003936          0.00046386
         29.40000000          0.00003950          0.00046711
         29.50000000          0.00003964          0.00047039
         29.60000000          0.00003978          0.00047369
         29.70000000          0.00003993          0.00047701
         29.80000000          0.00004007          0.00048035
         29.90000000          0.00004022          0.00048371
         30.00000000          0.00004036          0.00048710
         30.10000000          0.00004051          0.00049050
         30.20000000          0.00004066          0.00049393
         30.30000000          0.00004081          0.00049738
         30.40000000          0.00004096          0.00050085
         30.50000000          0.00004111          0.00050434
         30.60000000          0.00004126          0.00050785
         30.70000000          0.00004141          0.00051139
         30.80000000          0.00004156          0.00051495
         30.90000000          0.00004172          0.00051853
         31.00000000          0.00004187          0.00052214
         31.10000000          0.00004203          0.00052577
         31.20000000          0.00004218          0.00052942
         31.30000000          0.00004234          0.00053310
         31.40000000          0.00004250          0.00053680
         31.50000000          0.00004266          0.00054052
         31.60000000          0.00004282          0.00054427
         31.70000000          0.00004298          0.00054804
         31.80000000          0.00004314          0.00055184
         31.90000000          0.00004330          0.00055566
         32.00000000          0.00004347          0.00055950
         32.10000000          0.00004363          0.00056337
